VL,BF,TA,MG,Sol,Heel,Toe
0.34386471,0.36074783,0.452306286,0.067241289,0.651656967,0.422760827,0.063345185
0.712046588,0.133799742,0.191591959,-0.060680809,0.629254366,0.422436151,0.062371159
1.678280509,-0.034382104,-0.085356138,-0.196719792,0.212371183,0.422760827,0.062695834
1.742241558,-0.10483666,-0.133083418,0.061721808,0.211072481,0.422760827,0.063345185
2.068540312,-0.297693834,-0.175940568,0.075033498,-0.03113535,0.422111476,0.063020509
2.300683206,-0.62171986,-0.240550968,0.012046475,0.232825731,0.422760827,0.063345185
2.350033863,-0.129836664,-0.184382128,0.069838692,0.550682925,0.421786801,0.062695834
1.69224155,0.201656895,-0.067498992,0.03347505,0.575033579,0.421462125,0.06366986
-0.209706807,0.015293229,0.136072469,0.020488035,0.324059512,0.422760827,0.06366986
-1.424317392,0.003929591,0.293215351,0.155552992,-0.082109384,0.420163424,0.064319211
-0.83730431,0.099708827,0.069189342,0.163020525,-0.336005529,0.420488099,0.06366986
0.492890708,0.085747786,-0.194447064,0.165942604,-0.296395133,0.422760827,0.052955573
0.726332304,-0.007434047,-0.191849661,0.126007532,-0.158083422,0.421786801,0.064319211
0.261072489,-0.061005485,0.032501024,0.040617908,0.048085442,0.420163424,0.068215315
0.022436087,-0.043148339,0.430553036,-0.029836648,0.014968554,0.421786801,0.069514017
0.24061794,0.091267267,0.694838793,0.028604919,-0.036330156,0.390617965,0.069514017
0.263020541,0.293540027,0.529579026,0.18866988,0.156851693,0.421786801,0.066916614
-0.022369115,0.403280304,0.28347509,-0.003862618,0.23996859,0.420812775,0.067565965
-0.730810787,0.338345229,-0.002239241,-0.184057452,-0.097369127,0.419838748,0.068215315
-1.317174517,0.302306262,-0.314576954,-0.116200299,-0.173343165,0.418215372,0.069189342
-1.024317327,0.169514033,-0.416525022,0.026007516,-0.782109496,0.419514073,0.051981547
0.497111488,0.079578954,-0.480486071,0.187695854,-0.345421115,0.419189398,0.070488043
2.239968911,0.191267283,-0.144447056,0.170488059,0.814644007,0.419838748,0.071137394
3.151657368,0.255877683,0.38250108,0.089968566,0.863994664,0.419514073,0.071137394
0.115293245,0.175033514,0.531851753,-0.033408078,0.353929647,0.420488099,0.071137394
-2.064252559,0.030877647,0.394514069,0.068215315,-0.014576906,0.418540047,0.071462069
-0.489252306,-0.018148335,0.032501024,0.052306222,-0.189901609,0.419514073,0.071786745
0.281851713,-0.019447036,-0.084382112,-0.025940544,-0.230810707,0.419189398,0.071137394
-0.264901621,0.046786741,-0.167823683,-0.059706783,-0.071719772,0.419838748,0.071786745
0.120812726,0.240942616,-0.208732781,-0.077563929,-0.166524982,0.418864722,0.071462069
0.287046519,0.322436135,-0.288927599,-0.011979503,-0.304512017,0.418864722,0.071137394
-0.236654863,0.151656887,-0.466849705,0.008799721,-0.378213328,0.418215372,0.072760771
-0.475940616,0.056202326,-0.551914654,-0.076265227,0.859449209,0.420812775,0.072436095
-0.185356154,-0.062628861,-0.162628877,-0.147044459,0.962371303,0.42113745,0.07211142
-0.710031563,-0.014901581,0.182501048,-0.04866782,0.407825759,0.420812775,0.07211142
-1.79801875,0.005552968,0.067565965,0.083475058,-0.121395105,0.421462125,0.057825703
-2.726265652,0.061072457,-0.072693798,0.017890632,-0.378538003,0.422760827,0.072436095
-3.041525443,0.254578982,-0.107109388,0.000682837,-0.323343189,0.422111476,0.071786745
-2.804187743,0.35230627,-0.140550952,-0.004511969,-0.142823679,0.420488099,0.073085446
-2.112953866,0.030552972,-0.144771732,-0.161330176,0.030228296,0.376007573,0.074059472
-0.872044576,-0.25094058,0.043539987,-0.115226272,0.043539987,0.422436151,0.076007524
-0.086979515,-0.369447092,0.193540011,0.030877647,0.172436111,0.42113745,0.075682849
0.047760767,-0.299641886,0.239319239,0.414643942,0.016916606,0.42113745,0.076007524
0.185747802,-0.114252246,0.186397153,0.382176405,-0.004511969,0.422111476,0.075682849
0.341267307,-0.034382104,-0.314901629,0.014319203,-0.057434055,0.422111476,0.056851677
0.625358262,0.048410117,-0.390875667,-0.369122417,-0.126265235,0.42113745,0.076981551
0.996137542,0.028604919,-0.106784713,-0.372693846,-0.107758739,0.422111476,0.077306226
1.011397285,-0.081784709,-0.16944706,-0.243473046,0.03769583,0.423085502,0.076981551
1.049708979,-0.360356182,-0.031460025,-0.019771712,0.01659193,0.422111476,0.076981551
0.798734913,-0.269771752,0.289319247,0.17535819,0.087695838,0.421462125,0.079578954
0.297111456,-0.197693818,0.33964393,0.143540003,-0.096070425,0.420163424,0.079578954
0.226656899,-0.405810735,0.160747798,-0.140875627,-0.192823688,0.422436151,0.077955577
-0.180486023,-0.404512033,-0.217823692,-0.438927623,-0.052563925,0.42113745,0.078604927
-0.386005537,-0.283732793,-0.560356214,-0.372044495,0.167565981,0.421462125,0.079254278
-0.454836717,-0.303213316,-0.34152501,-0.102563933,-0.006784697,0.42113745,0.079254278
-0.550615953,-0.285031495,0.139968574,0.212371183,-0.236654863,0.421462125,0.078929603
-0.616200379,-0.162304202,0.002630889,0.303929639,-0.139576926,0.422111476,0.079903629
-0.636005577,-0.161979527,-0.474317239,0.034773752,0.040293233,0.422760827,0.078929603
-0.550615953,-0.116200299,-0.485356202,-0.370421119,0.142890652,0.421786801,0.079578954
-0.498992568,-0.100291205,-0.077888604,-0.331460073,0.097436099,0.423734853,0.062046483
-0.501589971,-0.204187326,0.282176389,0.300033534,-0.137304198,0.424059528,0.079903629
-0.418148399,-0.291849677,0.202955597,0.325033538,-0.544771796,0.423085502,0.079903629
-0.405810735,-0.325615917,-0.037304182,-0.061654835,-0.044771716,0.422760827,0.079903629
-0.383408134,-0.253213308,-0.103862634,-0.128213288,0.361397181,0.383799782,0.079578954
-0.29444708,-0.188278232,-0.129836664,-0.135356146,0.270488075,0.424059528,0.079254278
-0.17366784,-0.07821328,-0.111005493,0.247111448,-0.058083406,0.423734853,0.078929603
-0.044122365,-0.059706783,-0.030810675,0.765618025,-0.121070429,0.424708879,0.079578954
0.127955585,-0.084057436,0.037046479,0.35230627,0.012046475,0.423410178,0.079254278
0.348410166,-0.04379769,0.008799721,-0.335680853,0.152955589,0.423734853,0.053604923
0.471462133,-0.131460041,-0.039901585,-0.261005517,0.256527034,0.423410178,0.079578954
0.092241293,-0.200615897,-0.020745738,-0.06977172,-0.064576914,0.423085502,0.079578954
0.18022832,-0.143797706,0.060423106,0.333150423,-0.07821328,0.424384204,0.079254278
0.704254378,-0.085031462,0.206851701,0.204254298,0.237695862,0.424059528,0.078604927
0.743864774,-0.026265219,0.154578966,-0.112953545,0.397760823,0.423085502,0.078929603
0.571137474,0.043864662,0.085747786,-0.341849685,0.220812742,0.422436151,0.078604927
0.341267307,0.010423098,0.060747782,-0.16457693,0.088345189,0.423085502,0.078280252
0.014643878,-0.030810675,0.035423102,0.271137426,0.098410125,0.422436151,0.078604927
-0.030810675,0.010423098,0.062046483,0.42113745,0.15003351,0.422436151,0.080228304
0.174059488,-0.101589907,0.081527006,0.002306214,0.119514025,0.423085502,0.080877655
0.148410133,-0.228537979,0.170812734,-0.30710942,0.029903621,0.421786801,0.082176357
-0.020096387,-0.206784729,0.013345177,-0.32399254,0.044838688,0.422760827,0.08120233
-0.069447044,-0.063602888,-0.063927563,-0.191200311,0.081851681,0.422436151,0.080877655
-0.145745758,0.053280248,0.180552996,-0.140875627,-0.111654843,0.422436151,0.080228304
0.057176353,0.202306246,0.23152703,-0.19899252,-0.163602904,0.424384204,0.060098431
0.091591943,0.232825731,0.169189358,-0.067823667,-0.094447048,0.424384204,0.080877655
-0.006135346,0.109449088,0.100358178,0.394514069,-0.141524978,0.423085502,0.081527006
-0.137953549,0.006202318,0.08542311,0.336397177,-0.296719808,0.424384204,0.08120233
-0.237953565,0.02925427,0.10230623,0.03769583,-0.294771756,0.379254326,0.08120233
-0.554512057,0.094514021,0.199384168,-0.024317167,-0.166524982,0.426981607,0.081851681
-0.485356202,0.163345201,0.216267287,-0.045096391,-0.046719768,0.425682905,0.081851681
-0.09152497,0.181527022,0.203280272,-0.206460053,-0.185356154,0.425682905,0.081527006
0.047436091,0.111072465,0.072436095,-0.219771744,-0.249317203,0.426332256,0.081527006
-0.16035615,0.172436111,-0.010356126,0.006526994,-0.196719792,0.426332256,0.059124405
-0.192499012,0.221462093,0.065293237,-0.028537947,-0.0739925,0.42535823,0.081527006
0.160423122,0.108799737,0.05100752,-0.228862654,-0.011005477,0.426656931,0.081851681
0.297760807,0.004254266,0.019838684,-0.187628881,-0.091200295,0.426332256,0.082176357
0.247760799,-0.040875611,0.0117218,0.041267259,-0.292823704,0.425682905,0.081527006
0.263994568,-0.027563921,-0.095421074,0.43444914,-0.090226268,0.42535823,0.081527006
0.612371247,0.065617912,-0.191200311,0.354903673,0.167890656,0.42535823,0.08120233
0.515617985,0.169189358,-0.179836672,-0.083732761,0.048085442,0.42535823,0.081527006
0.149059484,0.02016336,-0.136654847,-0.194122389,-0.162628877,0.428604984,0.08120233
0.078280252,-0.550615953,-0.200940572,0.107825711,-0.415550996,0.434773816,0.081851681
0.367566013,-0.217499016,-0.195745766,0.188994556,-0.35418735,0.437046543,0.080877655
0.579903709,0.506202399,-0.123343157,0.038020505,0.038994531,0.445488103,0.077306226
0.522111492,0.502955645,-0.213927587,-0.239252266,0.213669884,0.450033558,0.074384148
0.583799814,0.021137386,-0.331784749,-0.13503147,0.088020513,0.473734861,0.071786745
0.769189454,-0.158408098,-0.288278248,-0.527564001,0.02925427,0.518864738,0.069189342
0.519514089,-0.01425223,-0.086330164,-0.281460065,-0.074966526,0.579903709,0.043539987
0.063345185,0.013994527,0.096137398,0.693864766,-0.30288864,0.623085534,0.064968562
0.33542315,-0.128862638,0.065293237,0.573085526,-0.285031495,0.671786841,0.065293237
0.565617993,-0.092498996,-0.023667816,-0.188602908,-0.059057432,0.710423211,0.064319211
0.613345273,-0.008083398,0.116591947,-0.306460069,0.099708827,0.694514117,0.060747782
0.314643926,0.083150383,0.19289066,0.177630917,0.082825707,0.788669976,0.051656871
0.001656863,0.048410117,-0.079836656,0.628929691,0.186721828,0.829254399,0.047436091
-0.098992504,0.047436091,-0.186005505,0.515293309,0.182501048,0.862371287,0.035747778
-0.079187306,0.149708835,-0.085031462,0.069514017,0.128604935,0.894838825,0.031526998
-0.447044508,0.172760787,0.015617904,-1.083408246,0.11496857,0.924708959,0.023410113
-0.458408146,0.084124409,0.144838704,-1.308083607,0.265293269,0.954903769,0.022111412
-0.128862638,-0.011005477,0.181851697,-0.10418731,0.253929631,0.990293385,0.023085438
-0.054511977,0.031202322,0.088020513,0.7224362,-0.020745738,1.031851834,0.022436087
0.086721812,-0.012628853,0.089319215,0.728280356,-0.108732765,1.069189502,0.024059464
0.323410162,-0.030485999,0.077630901,0.545812795,-0.17301849,1.10165704,0.023085438
0.062046483,-0.023667816,-0.067174317,0.224384172,-0.159057448,1.139968734,0.021137386
-0.215550964,0.091267267,-0.214576938,-0.076589903,-0.066200291,1.178929779,0.019189334
-0.560031539,0.058475054,-0.118148351,-0.172693814,-0.089901593,1.211721992,0.019189334
-0.845421195,-0.120421078,0.014643878,-0.332758775,0.055877651,1.247436284,0.019514009
-0.554187382,-0.25094058,0.101656879,-0.445096455,0.072436095,1.271786937,0.019514009
-0.236979539,-0.236330188,0.109449088,-0.161979527,-0.0528886,1.293864863,0.02016336
-0.155486019,-0.099641854,0.161721824,0.189319231,-0.184382128,1.312046684,0.019838684
-0.149966538,0.137695846,0.181202347,0.182501048,-0.197044467,1.329903829,0.019189334
-0.378538003,0.087371163,0.070812718,0.136072469,-0.056784705,1.353605132,0.018864658
-0.441200351,-0.028862622,-0.122369131,0.121786753,-0.034382104,1.380553188,0.019189334
-0.300940588,-0.034706779,-0.175291217,0.104254282,-0.150291213,1.403929815,0.018539983
-0.261330192,0.050682845,-0.109382116,0.171786761,-0.131784717,1.423085663,0.018539983
-0.331460073,0.242890668,-0.117499,0.258150411,-0.025615868,1.45133242,0.018539983
-0.412304242,0.214319235,-0.018148335,0.234449108,0.024059464,1.422111636,0.018539983
-0.35840813,-0.014576906,0.017241281,0.060423106,0.050682845,1.493540219,0.018215307
-0.001914566,0.017890632,-0.023992492,-0.045745742,0.035747778,1.518864899,0.018539983
0.118539999,0.01594258,-0.031784701,-0.032109376,0.066267263,1.542890877,0.018539983
0.069514017,-0.079187306,-0.028537947,0.037371155,0.182176373,1.560748022,0.018539983
-0.074317175,-0.026265219,-0.058408082,-0.15191459,0.187046503,1.578929843,0.018864658
-0.126589911,0.039968558,-0.069122369,-0.234382136,0.142890652,1.590942832,0.018539983
0.13250104,-0.105486011,-0.083408086,0.005552968,-0.03957691,1.608799978,0.018215307
0.471462133,0.01659193,-0.089576918,0.231202355,-0.215550964,1.626657124,0.018864658
0.486072525,0.234124433,-0.089252242,0.165942604,0.038345181,1.639319464,0.018215307
0.47308551,0.208475078,-0.006460021,-0.046719768,0.155877667,1.652631154,0.018539983
0.341267307,0.154578966,-0.055486003,-0.000615864,-0.003862618,1.672436352,0.018539983
0.333799774,0.036721804,-0.191200311,0.051332196,-0.150615889,1.682825964,0.018215307
0.510747854,-0.096719776,-0.19477174,-0.352563973,-0.096719776,1.697436356,0.018539983
0.603605012,-0.225291225,-0.066200291,-0.405161384,0.098410125,1.713345449,0.018215307
0.315293277,-0.22918733,-0.045096391,-0.191524986,0.128929611,1.725358438,0.018539983
0.118539999,-0.174641866,-0.038278208,-0.003862618,-0.050615872,1.741267532,0.018864658
0.057501028,0.013994527,-0.032109376,0.016267255,-0.084057436,1.753605196,0.018539983
-0.055161328,0.241916642,-0.007758723,-0.010680801,-0.055486003,1.766267536,0.018539983
-0.020096387,0.224059496,0.021137386,-0.002563917,-0.055161328,1.779903902,0.018215307
0.27925431,-0.096070425,0.056202326,-0.049641846,-0.042498988,1.798735074,0.019189334
0.249384176,-0.294771756,0.10230623,-0.101914582,-0.024317167,1.810748062,0.018539983
-0.083408086,-0.40613541,0.00328024,0.003929591,-0.037628857,1.816592219,0.018215307
-0.298343185,-0.358083454,-0.153537967,0.023410113,-0.049966522,1.827306507,0.018539983
-0.27269383,-0.179511997,-0.205486027,-0.076265227,-0.082758735,1.800683126,0.018539983
-0.426914634,-0.105161336,-0.123667832,-0.115226272,-0.101589907,1.844514302,0.018539983
-0.499317243,-0.112304194,0.00328024,0.093215319,-0.089576918,1.857825992,0.018539983
-0.313602928,-0.098667828,0.011397124,-0.006460021,-0.006135346,1.86496885,0.018539983
-0.2032133,-0.172044463,0.011397124,0.054254274,0.008799721,1.874709112,0.017890632
-0.267499024,-0.358083454,0.090942592,0.061397132,0.044514013,1.882825996,0.017890632
-0.280810715,-0.428538011,0.019514009,0.004254266,0.157825719,1.891267556,0.025682841
-0.268797726,-0.137628873,-0.012304178,0.080877655,0.137695846,1.901981843,0.032176349
-0.154187318,-0.011979503,0.1409426,-0.045096391,0.104254282,1.911722105,0.033150375
-0.010680801,-0.478213344,0.182825723,0.122111428,0.168215331,1.911722105,0.032825699
-0.10840809,-0.553213356,0.130228312,0.378604976,0.11074779,1.919189638,0.033799725
-0.282434091,-0.570096475,-0.03535613,0.096786749,0.115293245,1.9289299,0.03769583
-0.336005529,-0.716200395,-0.184057452,0.095163372,0.141916626,1.931527303,0.042241285
-0.228213304,-0.806135474,-0.129836664,-0.333732801,0.153929615,1.937696135,0.044514013
-0.015550932,-0.889577046,-0.071395097,-1.076590063,0.25750106,1.947761071,0.044838688
0.161072473,-0.435680869,-0.023343141,-0.58308349,0.214319235,1.950358474,0.045488039
0.071137394,0.032825699,-0.117823675,0.625358262,0.224384172,1.951657176,0.04613739
-0.001265215,0.211072481,-0.209382132,0.672436192,0.221786769,1.958150684,0.046462065
-0.106460037,0.146462081,-0.016200283,0.105552984,0.191591959,1.957826008,0.047111416
-0.122369131,-0.031460025,0.238994564,-0.440875675,0.196462089,1.962371463,0.047111416
0.126007532,0.03769583,0.251656903,-0.006135346,0.09386467,1.968864971,0.029903621
0.34386471,0.202306246,0.04191661,0.298734833,-0.083732761,1.972111725,0.04613739
0.234124433,0.336072501,-0.124641858,-0.160680825,-0.140875627,1.9724364,0.046786741
-0.252239281,0.420488099,-0.252888632,-0.488927631,-0.120096403,1.976332505,0.047760767
-0.468148407,0.487695902,-0.195745766,-0.282758767,-0.094447048,1.941592239,0.048085442
0.057501028,0.444838752,-0.076265227,0.056527002,-0.157109396,1.978929908,0.05035817
0.490942656,0.457825768,0.052306222,0.259449112,-0.207434079,1.984449389,0.05100752
0.279578986,0.466592003,0.133475066,0.321786785,-0.150615889,1.986397441,0.051981547
0.073734797,0.826007645,0.181851697,0.279903661,-0.045096391,1.988994844,0.056202326
-0.091849645,0.900033631,0.141267275,0.126656883,-0.2032133,1.997436404,0.05457895
-0.000615864,0.696462169,0.221462093,0.04191661,-0.334706827,2.006202639,0.081851681
0.251981579,0.775358286,0.226981575,0.035423102,-0.166200307,2.019189654,0.092565969
0.233150407,1.082176517,0.236721836,0.025358166,-0.185356154,2.026007837,0.096786749
0.117241297,0.534449156,0.275682881,0.042565961,-0.174317191,2.027306539,0.102955581
0.09808545,-0.334706827,0.238345213,-0.021719764,-0.106460037,2.031851994,0.108475062
0.091916618,-0.463278276,0.143215327,-0.094122373,0.004903617,2.041592255,0.115293245
0.108150387,-0.134706795,0.055877651,-0.015550932,-0.142823679,2.042566281,0.123734805
0.333799774,-0.071070421,0.009124397,0.136072469,-0.286979547,2.042241606,0.129578962
0.261397165,-0.275940584,-0.03113535,-0.105161336,0.028280244,2.047761088,0.133475066
-0.097693802,-0.09574575,0.008799721,-0.055810679,0.031202322,2.050683166,0.137371171
-0.508408154,0.289319247,0.179903645,-0.061005485,-0.339901633,2.052955894,0.142890652
-0.395421123,0.191267283,0.316591979,-0.166200307,-0.307758771,2.052631218,0.147111432
0.012695826,-0.109706791,0.247760799,-0.10418731,-0.205486027,2.054903946,0.148734809
0.070488043,-0.040550936,0.064968562,-0.033408078,-0.088602892,2.060423427,0.155877667
-0.065875615,0.091916618,-0.103213284,-0.115875623,-0.006460021,2.061722129,0.157501044
-0.169122385,0.103604931,-0.122369131,-0.097693802,0.067241289,2.061722129,0.173410137
-0.214576938,0.261072489,-0.04379769,-0.136330172,0.100358178,2.058475375,0.17957897
-0.217174341,0.42957901,-0.041200287,-0.216200315,0.014319203,2.061072778,0.188994556
-0.339576958,0.445488103,-0.186979531,-0.150615889,-0.012628853,2.017890953,0.199384168
-0.266200323,0.286072493,-0.220096419,-0.079187306,0.10230623,2.062046804,0.206202351
-0.057434055,0.02503349,-0.151265239,0.017241281,0.090942592,2.066592259,0.216591963
-0.119771728,-0.031460025,-0.075291201,0.100682853,-0.002563917,2.068540312,0.224384172
-0.116200299,0.113345193,-0.082758735,-0.140875627,-0.002888592,2.065942909,0.226981575
0.080877655,0.165293253,-0.128537963,-0.126265235,0.034449076,2.065942909,0.196786765
0.164319227,0.14938416,-0.068797694,0.030552972,0.208799754,2.068215636,0.237371187
0.030552972,0.250358202,0.01594258,0.082501032,0.25328028,2.069189662,0.242890668
-0.04022626,0.362371207,-0.063602888,-0.056135354,0.130877663,2.070813039,0.245812746
0.084449084,0.446786805,-0.092823671,-0.164252254,0.034773752,2.068540312,0.2490595
0.224708847,0.388345237,-0.066200291,-0.072044447,0.182501048,2.065293558,0.257825735
0.215942612,0.347436139,-0.012628853,0.147436107,0.237695862,2.070488364,0.272436127
0.121462077,0.409773812,-0.111005493,0.143540003,0.034124401,2.071787065,0.284773792
0.151656887,-0.263927595,-0.089901593,-0.058083406,0.021137386,2.069514338,0.29191665
0.168540007,-0.514576986,-0.047044443,-0.068148343,0.064643886,2.077631222,0.306527042
0.063020509,-0.111979519,-0.104511985,0.073734797,0.030877647,2.076657196,0.314968602
-0.038927559,0.230228328,-0.016200283,0.082825707,-0.043148339,2.074384468,0.319838732
0.295812755,0.431202387,0.049059468,0.060747782,-0.154836668,2.082826028,0.328604968
0.520488115,0.466916678,0.133799742,0.069514017,-0.035031454,2.093540316,0.342566009
0.508150451,0.59743618,0.094189346,0.08899454,0.118215323,2.09321564,0.361072505
0.157825719,0.48996863,-0.047369119,0.126656883,0.143864678,2.095163693,0.365942636
-0.298992536,0.210098455,-0.130486015,0.167241305,0.048085442,2.092241614,0.370163416
-0.549317251,-0.253537983,-0.130810691,0.14581273,-0.112628869,2.094839017,0.3782803
-0.316525006,-0.508083478,0.017565957,0.114319219,-0.192174337,2.096787069,0.390293289
0.11074779,-0.400615929,0.100033502,0.147760783,-0.22074577,2.055877972,0.400358226
-0.086330164,-0.365875663,0.023085438,0.171462085,-0.103862634,2.101332525,0.406527058
-0.460031523,-0.390226317,0.055877651,0.03769583,0.090293241,2.108475383,0.413345241
-0.328537995,-0.297693834,0.055877651,0.02016336,0.279903661,2.113020838,0.422436151
0.013345177,-0.336330204,-0.146070433,0.074708823,0.181527022,2.114644215,0.432176413
0.023734789,-0.351589947,-0.244447072,0.112371167,-0.16035615,2.121462398,0.41691667
0.038020505,-0.358083454,-0.170096411,0.077630901,-0.395421123,2.122436424,0.44711148
0.034449076,-0.425291257,-0.079187306,0.049384144,-0.452239314,2.1227611,0.454579014
-0.128862638,-0.469122433,-0.002563917,0.099708827,-0.28535617,2.126657204,0.467566029
-0.32399254,-0.569122449,0.09386467,0.078280252,-0.048343145,2.127955906,0.473734861
-0.114576922,-0.60418739,0.093215319,0.108799737,-0.028862622,2.130877984,0.48574785
0.198734817,-0.491200359,0.068215315,0.030552972,-0.109382116,2.135748115,0.496786813
0.12828026,-0.315226305,0.021137386,-0.076914578,-0.073018473,2.140618245,0.502306294
-0.129836664,-0.123018482,0.004254266,-0.120421078,-0.054836652,2.138020842,0.509449152
-0.252563957,-0.01847301,-0.114252246,0.000358162,-0.036979507,2.146787077,0.517890712
0.220812742,-0.013927555,-0.117823675,0.138020521,-0.126589911,2.146787077,0.526332272
0.3993842,-0.076914578,-0.146395109,0.195488063,-0.0739925,2.149059805,0.538020586
0.33542315,0.043539987,-0.127239261,0.151007536,-0.085356138,2.158475391,0.550682925
0.384124457,0.030228296,-0.061979511,-0.0739925,-0.102888608,2.161072794,0.55879981
0.218215339,-0.023018465,0.016916606,-0.154511993,0.096786749,2.158150716,0.571137474
-0.046719768,0.0117218,0.009124397,-0.029187298,0.191916634,2.16204682,0.584124489
0.02925427,-0.041849637,0.022111412,0.048085442,0.236072485,2.158475391,0.5932154
0.130228312,-0.105810687,0.096137398,0.048410117,0.173085462,2.160748119,0.601981635
0.034124401,-0.111654843,0.044189338,0.087046487,0.118539999,2.163345522,0.618864754
0.21042313,-0.028862622,-0.035031454,0.050033494,0.071786745,2.110748111,0.638020602
0.199384168,0.111721816,-0.063278212,-0.019771712,0.030552972,2.162371496,0.647760863
-0.102888608,0.15847507,-0.082109384,-0.045745742,0.186397153,2.164319548,0.656851773
-0.27691461,0.293540027,-0.097693802,-0.170421087,0.285098467,2.165942925,0.670488139
-0.24249902,0.0763322,-0.097693802,-0.261979543,0.259773788,2.167241626,0.677630998
-0.22496655,-0.192174337,-0.045745742,-0.095421074,0.141916626,2.166592275,0.661721904
0.216916638,-0.257758763,0.024059464,-0.010680801,0.006526994,2.162371496,0.685098531
0.753929711,-0.162304202,0.037046479,-0.056460029,0.00328024,2.159774092,0.689319311
0.554254354,-0.05710938,-0.00516132,-0.088602892,0.097111424,2.165942925,0.697760871
-0.517174389,-0.046070417,-0.054836652,-0.161654851,0.131527014,2.16204682,0.703280352
-0.621070509,-0.031784701,-0.085680813,-0.21230421,0.134124417,2.158150716,0.709449185
-0.251265255,0.102955581,-0.095421074,-0.192174337,0.121786753,2.160748119,0.719838797
0.068215315,0.236397161,-0.077563929,-0.102239257,0.071137394,2.163994872,0.729903733
0.205553,0.159773772,-0.029836648,-0.075940552,0.038020505,2.160098768,0.736721916
0.254903657,0.099384152,0.017241281,-0.076914578,0.002630889,2.163670197,0.742566073
0.256527034,-0.063602888,0.049059468,-0.039901585,0.030552972,2.163994872,0.749708931
0.073085446,-0.209057456,-0.011330152,-0.024641842,0.08964389,2.164319548,0.75750114
-0.067498992,-0.216200315,-0.073667824,-0.079836656,0.1844491,2.165618249,0.766267375
-0.041849637,-0.159057448,-0.066200291,-0.056135354,0.167241305,2.161397469,0.771137506
0.032501024,-0.048018469,-0.032109376,-0.032434051,0.057501028,2.161072794,0.773734909
0.089319215,0.010423098,-0.033408078,0.048734793,-0.103537959,2.159449417,0.776332312
0.027955569,-0.035680805,-0.0093821,0.063994536,-0.153537967,2.150033831,0.784124521
-0.132109392,0.007176345,0.035747778,0.044838688,-0.050940548,2.153929936,0.791267379
-0.073343149,0.230228328,0.058799729,-0.010680801,0.026332192,2.155228637,0.800682965
0.049384144,0.211072481,0.071137394,-0.05710938,0.029903621,2.125683178,0.807825824
0.021462061,-0.01425223,0.107825711,0.058475054,-0.01003145,2.149709156,0.816267383
-0.052239249,-0.17366784,0.060423106,0.141267275,-0.045745742,2.152306559,0.825682969
0.01594258,-0.134706795,0.02503349,0.070488043,-0.089576918,2.149059805,0.832501152
0.039319207,-0.073667824,0.088345189,0.055552976,-0.0739925,2.144189674,0.837046608
-0.037953533,-0.111005493,0.079254278,0.017565957,-0.058408082,2.143540324,0.814644007
-0.085680813,-0.176265243,0.028280244,-0.050291197,-0.054187302,2.138020842,0.845812843
-0.140875627,-0.10483666,0.03769583,-0.036654831,-0.122044455,2.134774088,0.848734921
-0.273343181,-0.020421062,0.043864662,-0.011005477,-0.178862646,2.132501361,0.85652713
-0.185680829,0.100358178,0.045812714,0.023085438,-0.144447056,2.125683178,0.86496869
-0.06555094,0.098734801,0.018539983,-0.029511973,-0.117823675,2.121137723,0.867890768
-0.221719796,-0.096719776,0.027306218,-0.045421066,-0.080486007,2.121137723,0.87341025
-0.322693838,-0.122693806,0.04613739,0.012371151,0.02925427,2.120813047,0.877955705
-0.300291237,-0.065875615,0.082825707,0.030552972,0.057501028,2.112696163,0.879903757
-0.265875647,-0.087953541,0.103929607,0.006851669,-0.012953529,2.11496889,0.886397265
-0.253537983,-0.037953533,0.095163372,0.039643882,-0.018797686,2.116267592,0.892566097
0.073085446,0.082501032,0.056851677,-0.015875607,-0.058083406,2.110748111,0.897760903
0.25750106,0.225682873,-0.013278204,-0.0528886,-0.072369123,2.10587798,0.901981683
0.221786769,0.11496857,-0.082758735,-0.048018469,-0.077239253,2.104254603,0.906202463
0.142565977,-0.035031454,-0.058732757,-0.001265215,-0.102563933,2.099384472,0.911721944
0.034773752,-0.086654839,0.004578942,-0.027563921,0.021786737,2.094839017,0.917890776
-0.148667836,-0.11327822,-0.019122361,-0.044122365,0.089968566,2.087046808,0.925682985
-0.162304202,-0.13438212,-0.114901597,-0.008083398,0.117890648,2.08834551,0.931527142
-0.111654843,-0.065226264,-0.094771724,3.35E-05,-0.007758723,2.087046808,0.939319351
0.054903625,0.095812722,-0.042498988,0.014319203,-0.211979535,2.043215632,0.945812859
0.322760811,0.111721816,-0.003537943,0.016916606,-0.062304186,2.079254599,0.951007665
0.401332252,0.022111412,-0.007434047,-0.0093821,0.113345193,2.076657196,0.954254419
0.17535819,0.077630901,-0.067174317,0.00328024,0.095488047,2.068540312,0.957501172
-0.086654839,0.125033506,-0.085680813,0.005228292,0.04191661,2.062696155,0.961072601
-0.193148363,0.094838696,-0.081460033,-0.019771712,-0.01847301,2.0581507,0.945812859
-0.10483666,0.005877643,-0.051589899,-0.01003145,-0.098343153,2.05392992,0.973410266
-0.01003145,0.011397124,-0.041524962,-0.023343141,-0.061005485,2.048735114,0.97730637
0.027630893,0.009773748,-0.042823663,-0.016200283,0.026656867,2.043864983,0.981851826
-0.163278228,0.015293229,-0.058732757,-0.047369119,0.038669856,2.036722125,0.985098579
-0.432434116,-0.010356126,-0.000615864,-0.039901585,0.00750102,2.032176669,0.988020658
-0.403538007,0.00328024,0.023734789,-0.000291189,-0.033408078,2.031527319,0.996786893
0.071462069,0.146137406,-0.028213271,-0.016849633,-0.037953533,2.029254591,1.002306374
0.393540043,0.285098467,-0.040875611,-0.00516132,0.063345185,2.019189654,1.005228453
0.103929607,0.17600754,0.054903625,0.005228292,0.124384156,2.018215628,1.007825856
-0.131135366,-0.087628865,0.104903633,-0.009706775,-0.036654831,2.018215628,1.013020662
0.154903641,-0.103213284,0.029903621,-0.011330152,-0.16879771,2.01529355,1.01594274
0.246786773,0.083799733,-0.055810679,-0.002239241,-0.006784697,2.009124718,1.016916766
-0.157434071,0.148734809,-0.079836656,-0.00094054,0.042890636,2.005228613,1.018215468
-0.500615945,0.086072461,-0.04022626,0.010747774,0.057501028,1.998735106,1.023734949
-0.299641886,0.04613739,-0.008408074,0.033150375,0.027630893,1.993864975,1.031851834
0.175033514,0.039968558,0.004903617,0.043215311,-0.034057428,1.983475363,1.031851834
0.414319267,0.0117218,-0.010356126,-0.004187294,-0.03957691,1.984449389,1.033799886
0.325033538,-0.032434051,-0.001265215,-0.048343145,0.006851669,1.981527311,1.036721964
0.07211142,-0.124641858,-0.04379769,-0.043148339,0.024059464,1.932501329,1.040942744
0.018539983,-0.090226268,0.027955569,-0.011979503,-0.047044443,1.970163672,1.047436252
0.067565965,0.102955581,0.092890644,0.019514009,0.045163364,1.967890945,1.05457911
-0.125615885,0.166591955,0.040293233,0.038020505,0.190293257,1.96399484,1.059124565
-0.134706795,0.074059472,-0.042498988,0.046462065,0.138020521,1.956527307,1.062046644
-0.027563921,0.014968554,-0.040875611,0.05457895,0.008475046,1.949384448,1.043215472
-0.363927611,0.040617908,-0.054836652,0.065617912,0.005228292,1.94224159,1.064319371
-0.459706847,0.058475054,-0.082758735,-0.006460021,-0.316200331,1.936722109,1.06724145
-0.013278204,0.012371151,-0.032109376,-0.050940548,-0.480486071,1.92957925,1.069189502
0.293540027,-0.070096395,-0.010356126,0.001981539,0.148085458,1.919514314,1.070163528
0.133799742,-0.090226268,-0.008732749,0.035098427,0.32211146,1.913670157,1.072436256
0.086721812,-0.011979503,-0.017823659,0.052630897,0.063994536,1.907826,1.074708983
0.035098427,0.188020529,-0.022044439,0.014643878,0.080228304,1.899709116,1.075033659
-0.266200323,0.187371179,-0.02691457,-0.00581067,-0.042498988,1.89029353,1.075033659
-0.175615893,-0.076914578,-0.158408098,0.043864662,-0.194122389,1.888020802,1.076657036
0.376981599,-0.09152497,-0.115226272,0.041267259,-0.099641854,1.88607275,1.083475219
0.407176409,-0.033732753,-0.08730419,0.00328024,-0.014576906,1.882501321,1.089319375
0.144189354,-0.181460049,-0.129836664,-0.008732749,-0.038602884,1.875033787,1.090293401
-0.19055096,-0.061654835,-0.118473026,0.009773748,-0.062304186,1.863994824,1.092241454
-0.284057468,0.102630905,-0.116200299,0.006202318,-0.101589907,1.854579238,1.096462234
0.100682853,0.112371167,-0.067498992,0.017241281,-0.164252254,1.847111705,1.102631066
0.175682865,-0.056460029,0.014968554,0.063345185,-0.03535613,1.827955857,1.101332364
0.112371167,-0.122693806,0.0552283,0.05457895,0.103280256,1.829579234,1.105228469
0.006851669,-0.140550952,0.012371151,0.022111412,0.103604931,1.823410402,1.107825872
0.201981571,-0.079187306,0.027306218,0.014319203,0.114643894,1.798735074,1.110423275
0.2490595,-0.029836648,0.102630905,-0.035680805,0.151656887,1.810748062,1.113020678
0.097436099,0.006202318,0.086072461,-0.027239245,0.005877643,1.805228581,1.118540159
0.122111428,0.043864662,0.005552968,0.066591939,-0.046070417,1.795163644,1.120488211
0.269189374,-0.059706783,0.006526994,0.062046483,-0.073343149,1.788345461,1.121786913
0.186721828,-0.162953553,0.125682857,-0.037628857,-0.387628914,1.780228577,1.094189506
-0.105161336,-0.119122377,0.083799733,-0.03535613,-0.236005513,1.767241562,1.121137562
-0.199966546,-0.050291197,0.107501036,0.019838684,0.395488095,1.758150651,1.124708991
-0.22983668,-0.016524958,0.103280256,0.097111424,0.449059532,1.750683118,1.12763107
0.036072453,0.15847507,0.090617916,-0.02691457,0.165293253,1.7350987,1.127306394
0.163994552,0.141591951,0.065293237,-0.095421074,0.060747782,1.721462334,1.129254447
-0.055486003,-0.01003145,0.022111412,-0.03113535,-0.038602884,1.711397397,1.132176525
-0.048343145,-0.103537959,0.001656863,-0.008083398,-0.175615893,1.704579214,1.136397305
0.157501044,-0.003537943,0.124384156,-0.044122365,-0.062304186,1.695163628,1.141267436
0.169514033,0.186397153,0.121786753,-0.010356126,-0.010356126,1.689319472,1.146137566
-0.153213292,0.204903649,0.010747774,0.015617904,-0.163278228,1.681202587,1.149059645
-0.210031482,0.153604939,-0.13925225,-0.01360288,-0.103213284,1.676332456,1.154903801
-0.126914586,0.101332204,-0.141524978,-0.019122361,0.230553004,1.673735053,1.160098607
-0.160680825,-0.091200295,0.007176345,-0.040875611,0.273734829,1.663020766,1.163345361
-0.12171978,-0.142174329,0.151007536,-0.0528886,0.097111424,1.651981803,1.165293413
-0.008408074,-0.023343141,0.143864678,-0.04022626,-0.126265235,1.643215568,1.17048822
-0.048018469,0.103604931,0.012046475,-0.004511969,-0.114252246,1.631527255,1.165942764
-0.282434091,0.112046491,-0.127563937,0.026656867,0.013345177,1.622761019,1.167566141
-0.456460093,0.086397137,-0.143797706,0.018864658,-0.066200291,1.613345433,1.16626744
-0.215875639,0.043864662,-0.061979511,-0.006460021,-0.267499024,1.565618153,1.168864843
0.008475046,-0.087628865,-0.054187302,-0.048992496,-0.12594056,1.591592183,1.172436272
0.059773756,-0.161005501,-0.013278204,-0.006135346,0.034124401,1.582176597,1.174384324
-0.066200291,-0.142174329,0.072760771,0.027955569,-0.076265227,1.568540231,1.174384324
0.066267263,-0.107434063,0.049059468,0.011072449,0.010423098,1.556851918,1.17535835
0.143215327,-0.031460025,-0.003862618,0.030877647,0.086072461,1.55035841,1.160747958
0.341916658,-0.029511973,-0.002239241,0.034124401,0.001656863,1.539319448,1.178929779
0.147111432,-0.107434063,-0.080810683,3.35E-05,-0.195096415,1.52438438,1.179254455
-0.514901661,-0.023667816,-0.248992528,-0.001265215,-0.076589903,1.510423339,1.180553156
-0.484382176,-0.140875627,-0.185031478,0.031526998,0.230228328,1.500358402,1.182176533
-0.070745746,-0.191524986,-0.04866782,0.002306214,0.275682881,1.492241518,1.183475235
0.178280268,-0.023667816,0.008799721,-0.071395097,-0.152239265,1.480228529,1.186072638
0.251656903,0.143540003,0.08542311,-0.064901589,-0.649966618,1.473085671,1.189644067
0.377306274,0.15847507,0.066267263,0.026332192,-0.358732805,1.462696059,1.193540171
0.30879977,0.117241297,-0.038602884,0.11074779,0.194189362,1.4555532,1.196137574
-0.029187298,0.032501024,-0.088278216,0.080228304,0.393540043,1.447111641,1.19646225
-0.152563941,-0.027563921,-0.020096387,-0.010356126,0.205553,1.436072678,1.196786925
-0.282758767,-0.038927559,-0.036005481,-0.034057428,-0.017174309,1.430553196,1.199059653
-0.268797726,-0.04866782,-0.092823671,0.002955565,-0.20386265,1.426332416,1.201657056
-0.1821094,-0.102563933,-0.007758723,0.003604915,-0.124317183,1.413994752,1.203929783
-0.070096395,-0.145096407,0.020488035,0.002630889,0.048734793,1.409124621,1.211721992
-0.088927567,-0.029511973,0.037046479,-0.014901581,0.141591951,1.408150595,1.213020694
-0.047044443,0.090293241,0.053929599,-0.036654831,0.026332192,1.391916826,1.215618097
0.462695898,0.182825723,0.039319207,-0.017174309,0.015617904,1.379903838,1.214319395
0.66269593,0.269189374,0.012695826,0.056202326,0.205877675,1.331851882,1.217241474
0.006202318,0.207825727,0.051656871,0.050033494,0.130877663,1.366592147,1.217890825
-0.379187354,-0.080161332,0.090293241,0.036072453,-0.129187314,1.36074799,1.218864851
-0.172044463,-0.232434083,0.011397124,0.067565965,-0.138927575,1.35230643,1.2182155
-0.131460041,-0.2032133,-0.011979503,0.062371159,-0.011005477,1.348085651,1.220488228
-0.182434075,-0.145745758,-0.04444704,-0.011979503,0.282825739,1.342566169,1.206851862
-0.025615868,-0.034706779,-0.032434051,-0.080486007,0.1198387,1.334449285,1.224384332
0.079903629,0.051656871,-0.021395089,-0.07886263,-0.124966534,1.322760971,1.224059657
0.034449076,-0.01360288,-0.15613537,-0.022369115,0.224059496,1.314644087,1.223410306
-0.033732753,-0.00094054,-0.261330192,0.038020505,0.191916634,1.305228501,1.225033683
-0.027888596,0.035098427,-0.251589931,0.05100752,0.139643898,1.299384344,1.22665706
0.22308547,0.024708815,-0.046070417,0.012046475,0.023734789,1.292566161,1.225033683
0.226332224,-0.067823667,0.130877663,-0.02691457,0.03347505,1.286722004,1.228605112
0.016267255,-0.16035615,0.17957897,-0.027563921,0.05100752,1.277955769,1.230553164
-0.106460037,-0.132109392,0.033150375,-0.018797686,-0.069122369,1.276007717,1.234449269
-0.163278228,-0.07821328,-0.023992492,-0.090550944,0.088345189,1.271786937,1.236721996
-0.172044463,-0.057758731,0.014643878,-0.016524958,0.065942588,1.265618105,1.238345373
-0.134057444,-0.090875619,-0.026265219,-0.009057424,-0.240550968,1.258799922,1.240618101
-0.122693806,0.025358166,-0.13016134,-0.025615868,-0.163278228,1.253605116,1.243864855
-0.142174329,0.095488047,-0.249641878,-0.036330156,0.393540043,1.247760959,1.245812907
-0.087953541,0.040293233,-0.186979531,-0.058083406,0.118864674,1.240618101,1.249709011
0.026656867,-0.097044451,0.049059468,0.05944908,-0.311005525,1.24841031,1.248734985
0.194189362,-0.280486039,0.08055298,0.128604935,-0.081460033,1.222760955,1.251657064
0.30035821,-0.074966526,0.051332196,-0.111654843,-0.012953529,1.214968746,1.251332388
0.219838716,0.066267263,0.168215331,-0.138927575,0.115293245,1.185423287,1.253929791
-0.145096407,0.112695842,0.17957897,0.05035817,0.047436091,1.197436276,1.254903817
-0.203537975,0.116267271,0.094514021,0.038994531,-0.008732749,1.193215496,1.255877844
0.117241297,0.086721812,0.005228292,-0.080161332,-0.083408086,1.183475235,1.258150571
0.186721828,0.015293229,-0.118797702,-0.059706783,-0.327563969,1.177306402,1.261722
-0.090226268,-0.035680805,-0.130486015,0.049059468,-0.223343173,1.170812895,1.249384336
-0.130486015,-0.060680809,-0.054836652,0.101981555,0.032501024,1.163345361,1.266267456
-0.067823667,-0.005485995,-0.053213276,0.022760763,0.115942596,1.152955749,1.267241482
0.09808545,0.06789064,-0.137953549,-0.196719792,0.228280276,1.144514189,1.269514209
0.196462089,0.032825699,-0.182758751,-0.253537983,0.372436143,1.134773928,1.269838885
0.262046515,-0.00581067,-0.023343141,-0.036654831,0.493864734,1.12763107,1.272436288
0.068539991,-0.061654835,0.120163376,0.170163384,-0.050291197,1.121786913,1.274709015
-0.501265295,-0.061979511,0.12828026,0.131527014,-0.580486087,1.11496873,1.278280445
-0.641525058,0.107501036,0.049384144,0.015617904,-0.537628938,1.107501196,1.279579146
-0.048992496,0.024708815,-0.073667824,-0.083732761,-0.488927631,1.10230639,1.281202523
0.338669904,-0.098992504,-0.042498988,-0.104511985,0.038345181,1.094514181,1.283799926
-0.012953529,-0.000615864,0.015293229,-0.04022626,0.751981659,1.0889947,1.283799926
-0.295421107,0.006851669,0.02925427,-0.000291189,0.470488107,1.085747946,1.288020706
-0.248018502,-0.097693802,-0.034382104,0.017890632,3.35E-05,1.0889947,1.293864863
-0.00094054,-0.127888612,-0.055161328,-0.001589891,-0.133083418,1.079579114,1.299059669
-0.059057432,-0.036654831,-0.024966518,-0.037304182,-0.146395109,1.073085606,1.303280449
-0.082109384,0.107501036,0.029903621,-0.014576906,-0.340226309,1.070488203,1.302306422
0.061721808,0.070812718,0.038994531,0.056527002,-0.257434087,1.061397293,1.306527202
-0.131784717,-0.085680813,0.044514013,0.026656867,0.012695826,1.055228461,1.304254475
-0.220421095,-0.093148347,0.028280244,-0.003213267,-0.009057424,1.03704664,1.303280449
-0.034382104,0.023085438,0.016916606,0.00750102,-0.063278212,1.040942744,1.307176553
0.177630917,0.035098427,-0.008083398,-0.006460021,-0.065875615,1.036072614,1.310098632
-0.025615868,-0.02691457,-0.057434055,-0.020421062,0.062695834,1.031851834,1.312371359
-0.107758739,-0.052239249,-0.052563925,-0.008732749,0.120812726,1.024708975,1.315618113
0.103604931,-0.032434051,-0.029511973,-0.015875607,0.194838712,1.019838845,1.308150579
0.290617948,0.045812714,-0.027563921,-0.00581067,0.259124437,1.015293389,1.322436296
0.17535819,0.076007524,-0.004511969,0.013345177,0.100682853,1.010423259,1.324709023
0.264968594,0.038994531,0.022111412,-0.036654831,-0.105810687,1.004254427,1.327631102
0.311397173,0.016916606,0.034124401,-0.11327822,-0.136330172,0.996786893,1.329254479
0.06789064,0.005552968,-0.006135346,-0.043148339,-0.053537951,0.991592087,1.331851882
0.059773756,0.016916606,-0.014576906,0.016267255,0.165942604,0.984124553,1.333799934
0.060098431,-0.04866782,-0.054511977,0.074059472,0.122436103,0.977955721,1.33477396
0.186072477,-0.00581067,-0.091200295,0.110098439,-0.07886263,0.969189486,1.339319415
0.262695866,0.046462065,-0.059057432,0.05457895,-0.304836692,0.967566109,1.34321552
0.165293253,-0.000615864,-0.052239249,0.015617904,-0.382434108,0.964319355,1.345812923
0.297111456,-0.028213271,-0.005485995,0.014643878,0.06789064,0.961072601,1.348735001
0.278929635,-0.052239249,-0.047369119,0.041591935,0.265617944,0.958475198,1.352631106
0.309773796,-0.104511985,-0.064252238,0.001332188,0.217890664,0.954254419,1.35652721
0.337046527,-0.097369127,0.050033494,-0.041524962,0.158150395,0.954579094,1.361072666
0.187371179,0.029578946,0.143215327,0.019838684,-0.002888592,0.945812859,1.361072666
-0.079511981,0.121137402,0.045812714,0.049059468,-0.093148347,0.945488183,1.364319419
-0.053862626,0.090617916,-0.0528886,0.011397124,-0.158732773,0.935747922,1.370488252
-0.053862626,0.043539987,-0.030485999,-0.002563917,-0.322693838,0.931202467,1.371786953
0.189968582,0.007825695,-0.019771712,-0.018797686,-0.282434091,0.898734929,1.376007733
0.383475106,-0.028213271,-0.080486007,-0.025291193,0.022111412,0.917890776,1.380228513
0.153280264,-0.007434047,-0.028862622,-0.036005481,0.13672182,0.912371295,1.383150591
-0.389576966,-0.008408074,0.087371163,0.003929591,0.137046495,0.902306358,1.384449293
-0.421070477,0.02081271,0.080877655,0.046786741,0.182176373,0.899708955,1.387046696
-0.104511985,0.060423106,0.07211142,0.03769583,0.050033494,0.89938428,1.38185189
-0.1821094,0.08055298,0.053929599,-0.024966518,0.117565973,0.888345317,1.393864879
-0.321719812,0.075033498,0.028604919,-0.073343149,0.21464391,0.875358302,1.393540203
-0.155161344,0.107825711,0.043215311,-0.091200295,0.057825703,0.870163496,1.398735009
0.066591939,0.105552984,0.011072449,-0.071395097,-0.29801851,0.867241418,1.400683062
-0.024966518,0.08120233,-0.049641846,0.012695826,-0.558408162,0.859449209,1.408799946
-0.332109424,-0.011979503,0.009449072,0.081851681,-0.077563929,0.852955701,1.412371375
-0.425940608,-0.034706779,0.101007528,0.057501028,0.324384188,0.851657,1.418215532
-0.413278268,0.057176353,0.04613739,-0.039252234,0.280553012,0.844189466,1.420163584
-0.316200331,0.061072457,-0.007109372,-0.016849633,0.137371171,0.839968686,1.42535839
-0.098018477,0.02503349,-0.077563929,0.016267255,0.02081271,0.828929723,1.430553196
-0.092174321,0.013345177,-0.097044451,-0.029511973,-0.088278216,0.831202451,1.436722028
0.021786737,-0.004187294,-0.090550944,0.009449072,-0.09996653,0.830228425,1.44224151
-0.027563921,-0.056784705,-0.001589891,0.00750102,0.010423098,0.824384268,1.447760991
-0.15613537,0.004254266,0.022111412,0.018215307,-0.041849637,0.819514137,1.450033719
0.031851673,0.044189338,-0.040875611,0.051981547,-0.021070413,0.815942708,1.451981771
0.193540011,-0.01847301,-0.027239245,0.054903625,0.001332188,0.825358294,1.454579174
0.351007569,0.120488051,0.079254278,0.025682841,-0.032434051,0.811397253,1.457825928
0.314643926,0.193864686,-0.042823663,-0.01360288,0.104254282,0.80879985,1.456851902
0.161397149,0.033799725,-0.261330192,-0.030161324,0.057176353,0.792890756,1.461072682
-0.205161352,-0.045421066,-0.200291221,-0.026589895,-0.096070425,0.800033615,1.462046708
-0.092174321,-0.018148335,0.075033498,-0.014576906,0.079254278,0.796462185,1.463020734
0.312695874,0.0552283,0.119514025,0.033150375,0.200682869,0.794838809,1.464644111
0.475682913,0.055877651,0.084124409,0.057176353,0.165617928,0.786721924,1.468540215
0.238020537,0.085747786,0.068539991,-0.019447036,0.015293229,0.784124521,1.468864891
0.224059496,0.102955581,0.018539983,0.021462061,-0.226265251,0.776656987,1.478605152
0.172760787,0.036072453,-0.063927563,0.015293229,-0.219447068,0.773734909,1.481202555
0.253929631,0.036397128,-0.104511985,-0.105161336,-0.057758731,0.776007637,1.484773984
0.555877731,0.011072449,-0.046719768,-0.089901593,0.150358186,0.773410234,1.486722036
0.536397209,-0.002563917,0.040617908,0.032501024,0.268540023,0.769189454,1.492890869
0.00750102,0.069838692,0.0117218,0.026981543,-0.066200291,0.767890752,1.497436324
-0.284057468,0.109773764,0.009124397,0.002306214,-0.286654871,0.760098543,1.499059701
-0.108732765,0.063020509,0.01594258,-0.097369127,-0.210680833,0.759773868,1.502306455
-0.011330152,-0.007434047,-0.013278204,-0.115875623,0.077630901,0.759449193,1.505553208
0.006851669,-0.083732761,-0.020745738,-0.037953533,0.228929627,0.752306334,1.508150611
-0.188927583,-0.023667816,-0.01003145,-0.011005477,0.11074779,0.754254386,1.510748014
-0.503862698,0.073410121,0.005552968,0.043215311,-0.04444704,0.751656983,1.518215548
-0.27691461,0.028929595,-0.018148335,0.03347505,-0.058408082,0.749384256,1.524059705
0.111721816,0.00328024,-0.046395093,-0.048992496,-0.031784701,0.75263101,1.528929835
0.223410145,-0.027563921,-0.038278208,-0.068473018,-0.064901589,0.754579062,1.532176589
0.044189338,-0.022369115,-0.070096395,-0.063927563,0.026332192,0.745163476,1.535748018
-0.253862658,0.049059468,-0.011979503,-0.033083402,0.091916618,0.747111528,1.541916851
-0.576265307,0.141267275,-0.019447036,-0.059057432,0.0552283,0.744838801,1.541916851
-0.550940628,0.090942592,-0.087953541,-0.065226264,0.012695826,0.738994644,1.548085683
-0.202239273,-0.045096391,-0.074317175,-0.03113535,0.019838684,0.74418945,1.551981787
0.017565957,-0.080486007,0.040617908,0.044838688,0.133150391,0.746786853,1.554903866
0.426981607,-0.015226256,0.071462069,0.057501028,0.261072489,0.746462177,1.560423347
0.488669928,0.03769583,0.254903657,-0.017498984,0.087371163,0.745163476,1.566916855
-0.326914618,0.017565957,0.336397177,-0.041849637,-0.098018477,0.744514125,1.564319452
-0.744771828,0.014319203,0.077955577,0.006526994,-0.207434079,0.744514125,1.57990387
-0.149641862,0.00750102,-0.379187354,0.034449076,-0.115550948,0.744514125,1.584449325
0.001656863,-0.006784697,-0.458732821,-0.023018465,0.116591947,0.745488151,1.589644131
-0.066524966,0.034773752,-0.078537955,-0.069447044,0.188994556,0.743215424,1.592890885
0.370163416,0.018539983,0.207176377,-0.081460033,-0.011979503,0.745163476,1.59743634
0.292890676,-0.016200283,0.123085454,-0.138278224,-0.124641858,0.745163476,1.600683094
-0.097693802,-0.051914574,0.049708819,-0.061654835,-0.06133016,0.744838801,1.604903874
0.40425433,-0.041849637,0.045488039,0.089319215,0.054254274,0.744514125,1.611397381
0.490293305,-0.0739925,0.038020505,0.116916622,0.139319223,0.746462177,1.619838941
-0.373992548,-0.114576922,-0.052563925,0.095488047,0.218540015,0.741916722,1.626332448
-0.659382204,-0.0739925,-0.097369127,0.010747774,0.027630893,0.74841023,1.630228553
-0.534706859,0.02438414,-0.09152497,-0.027888596,-0.339252282,0.750358282,1.636722061
-0.128537963,0.040617908,-0.142174329,-0.019447036,-0.303537991,0.754579062,1.646786997
0.029578946,-0.052563925,-0.165875631,-0.016524958,-0.003213267,0.754579062,1.656527259
0.117565973,-0.035680805,-0.072369123,0.009124397,-0.110680817,0.755553088,1.661397389
0.227630925,0.015293229,0.007176345,0.028929595,0.003929591,0.739319319,1.670163624
0.361397181,-0.031460025,-0.004836644,0.020488035,0.176332216,0.75263101,1.677631158
0.379903677,-0.076914578,0.030877647,0.073410121,0.159773772,0.75263101,1.682501289
-0.062953537,-0.060356134,0.007176345,0.126656883,0.010098423,0.734124513,1.684774016
-0.346719816,-0.006135346,-0.006460021,-0.027239245,-0.097044451,0.75328036,1.693215576
-0.350291245,0.005552968,0.039319207,-0.112953545,-0.04022626,0.753929711,1.701007785
-0.146395109,0.003604915,0.058475054,-0.081784709,0.118864674,0.751007633,1.708150643
-0.162953553,-0.000615864,0.003604915,0.10230623,0.115942596,0.751656983,1.714319476
0.099384152,-0.002563917,0.001981539,0.131202338,0.004578942,0.752306334,1.7139948
0.370163416,-0.013278204,-0.002563917,0.078280252,-0.240875643,0.752955685,1.733799998
0.374384196,-0.093148347,-0.037953533,0.006526994,-0.43633022,0.752306334,1.736397401
0.047111416,-0.145096407,0.070812718,-0.049641846,-0.271070453,0.751332308,1.741267532
-0.07464185,-0.055810679,0.152306238,-0.034706779,0.047111416,0.749708931,1.743540259
-0.211979535,0.045812714,0.249384176,0.077630901,0.312046523,0.749708931,1.755228573
-0.144771732,0.064643886,0.071462069,0.070812718,0.27925431,0.750682957,1.762696107
0.08055298,-0.00094054,-0.223667848,-0.021070413,0.110423114,0.748734905,1.765618185
-0.308408122,0.008799721,-0.294771756,-0.046395093,0.021786737,0.753929711,1.776007797
-0.456460093,0.061072457,-0.10418731,-0.017823659,-0.196395117,0.754903737,1.784124682
0.299708859,0.024708815,0.036072453,0.033150375,-0.335680853,0.749708931,1.791592215
0.911721944,-0.03113535,0.080877655,0.034449076,-0.240550968,0.754254386,1.798735074
0.201981571,-0.032109376,0.111397141,0.053929599,-0.030810675,0.755553088,1.805228581
-0.497693866,-0.04866782,0.104254282,0.091916618,0.144189354,0.751981659,1.810423387
-0.629836745,0.048734793,-0.011654827,0.135423118,0.085747786,0.756527114,1.820163648
-0.411979567,0.073734797,-0.189901609,0.055552976,0.094189346,0.757176465,1.828280533
0.014319203,0.037046479,-0.136979523,-0.018797686,0.23152703,0.735423215,1.834449365
0.256527034,0.047436091,-0.042174313,-0.021395089,-0.188927583,0.75750114,1.843864951
0.203604948,0.102630905,0.009773748,-0.067823667,-0.280161364,0.757176465,1.846787029
-0.006784697,0.076981551,0.065942588,-0.053537951,-0.057758731,0.750358282,1.853280537
-0.077239253,0.028929595,0.065293237,-0.003213267,-0.149641862,0.758475166,1.86009872
0.27860496,0.013994527,-0.059057432,0.012695826,-0.016200283,0.759449193,1.8643195
0.75263101,-0.01003145,-0.146070433,0.083150383,0.226981575,0.764643999,1.871137683
-0.068148343,-0.016524958,0.028929595,0.138994548,0.13250104,0.758475166,1.878605216
-0.721395201,0.015293229,0.11074779,0.050682845,-0.001265215,0.758150491,1.876332489
-0.368797742,-0.037304182,0.021786737,-0.045745742,-0.129187314,0.759124517,1.893215608
0.095812722,-0.08730419,0.008799721,-0.037304182,-0.17301849,0.758799842,1.89873509
0.277306258,-0.067498992,0.059124405,-0.045421066,-0.049966522,0.760423219,1.905228597
0.062695834,-0.075291201,0.010098423,-0.001914566,0.006526994,0.762371271,1.911397429
-0.172369139,-0.088278216,-0.06555094,-0.016524958,0.078604927,0.760098543,1.919838989
0.009449072,-0.035031454,-0.004511969,0.006202318,-0.006784697,0.758150491,1.925033795
0.2490595,0.003604915,0.035098427,0.000682837,-0.161979527,0.761072569,1.927955873
0.092890644,-0.046395093,0.038020505,0.004903617,-0.149317187,0.759449193,1.935423407
-0.06555094,-0.090226268,-0.060031458,0.035747778,0.019514009,0.761072569,1.945813019
-0.121395105,-0.280810715,-0.079511981,0.058150379,0.157176369,0.756527114,1.952306527
-0.144122381,-0.505810751,-0.02269379,0.060423106,0.159449096,0.756527114,1.960423411
-0.00581067,-0.340550984,-0.020745738,-0.011654827,0.120812726,0.759773868,1.972111725
-0.076589903,0.217241313,-0.063278212,-0.039901585,-0.090875619,0.75750114,1.983150688
-0.270745778,0.383475106,-0.041849637,-0.008408074,-0.112304194,0.765293349,1.992890949
-0.18633018,0.384449132,-0.067498992,0.019514009,-0.085031462,0.767241402,1.996137703
0.053929599,-0.124966534,-0.146070433,0.047111416,-0.112953545,0.733475162,2.003280561
0.127955585,-0.301914614,-0.009706775,0.013345177,0.06366986,0.763020622,2.010423419
0.177306242,-0.16457693,0.105228308,-0.030810675,0.434773816,0.762046596,2.014319524
0.24483872,-0.118473026,0.05944908,-0.020745738,0.257825735,0.755553088,2.020488356
0.311397173,0.013020501,0.043539987,0.046462065,-0.13016134,0.762046596,2.030228617
0.046786741,0.03769583,-0.011654827,0.004903617,0.018215307,0.762046596,2.034449397
-0.520421143,0.124384156,-0.029187298,0.00750102,-0.028213271,0.763994648,2.041916931
-0.623343237,0.140617924,-0.073667824,0.008150371,-0.355486051,0.761397245,2.051981867
-0.275291233,0.092241293,-0.10840809,-0.046070417,-0.38438216,0.764968674,2.051657192
0.391591991,0.053604923,0.059773756,-0.044122365,-0.04022626,0.768540103,2.072111741
0.574708903,0.068539991,0.076656875,-0.004511969,0.103280256,0.772111532,2.077631222
0.11918935,0.04191661,0.043539987,0.005552968,0.237046511,0.775033611,2.082826028
0.026981543,-0.011330152,0.041591935,0.06366986,0.326656915,0.774059584,2.086722133
0.330228344,0.038669856,-0.007434047,0.038020505,0.001007512,0.773085558,2.094514342
-0.004836644,-0.007109372,0.018539983,-0.022369115,-0.26425227,0.772760883,2.100033823
-0.400291253,-0.019122361,0.019189334,-0.049641846,-0.240875643,0.778280364,2.108475383
-0.289901625,-0.021719764,0.022760763,-0.014576906,-0.160031474,0.776007637,2.116267592
-0.033732753,0.004254266,0.052955573,-0.019447036,-0.117499,0.776332312,2.125683178
0.067241289,-0.004836644,-0.027563921,-0.019447036,0.021462061,0.781202443,2.133475387
-0.012304178,0.012046475,-0.017498984,0.007176345,0.081527006,0.77438426,2.141916947
-0.019447036,-0.054187302,0.006202318,-0.015550932,-0.121395105,0.772111532,2.15360526
0.086072461,-0.088602892,-0.034382104,0.044189338,-0.122369131,0.777955689,2.163345522
0.089968566,-0.024641842,0.086397137,0.020488035,0.126981559,0.771786857,2.177306563
0.032176349,-0.031460025,0.084449084,0.032501024,0.065617912,0.763994648,2.183475395
-0.131460041,0.013669852,-0.050615872,0.038669856,3.35E-05,0.732825812,2.189644227
-0.170745762,0.015293229,-0.071719772,-0.007434047,-0.063602888,0.760423219,2.197436436
0.043864662,-0.043473014,-0.014901581,0.000682837,-0.012628853,0.760747894,2.201657216
0.030228296,-0.034382104,0.018215307,-0.039901585,0.161397149,0.743864774,2.20912475
-0.14769381,-0.004836644,-0.015226256,-0.042823663,0.219514041,0.757825816,2.220813063
-0.184706803,-0.034057428,-0.001265215,-0.01425223,0.100033502,0.755877763,2.232176702
-0.193473038,-0.028537947,0.025358166,-0.031460025,-0.043148339,0.763994648,2.242241638
-0.295745782,-0.016849633,-0.00516132,0.005877643,-0.035680805,0.752955685,2.252306575
-0.136654847,0.004903617,-0.071070421,0.008475046,0.111072465,0.75263101,2.249384496
0.307176393,-0.01425223,-0.076265227,-0.001265215,0.316916654,0.752306334,2.271137747
0.292241325,-0.028537947,-0.025291193,-0.003862618,0.195488063,0.752955685,2.276332553
-0.236330188,-0.023667816,0.049059468,-0.061654835,-0.178862646,0.752955685,2.280878008
-0.445745806,-0.051914574,-0.020096387,-0.008083398,-0.163927579,0.756202439,2.285098788
-0.067174317,0.022436087,-0.04866782,0.030228296,0.101007528,0.753929711,2.295163725
0.400358226,0.076656875,-0.040550936,0.036397128,0.300682885,0.754903737,2.304903986
0.382176405,0.092565969,-0.014576906,0.032501024,0.286397169,0.756202439,2.307826064
-0.249966554,0.056527002,-0.025291193,-0.05710938,0.05100752,0.754579062,2.315942949
-0.450615937,-0.01360288,-0.045096391,-0.12594056,-0.433732817,0.755877763,2.328929964
0.043864662,-0.024641842,-0.011979503,-0.108083414,-0.407109436,0.7659427,2.337371524
0.1409426,-0.029511973,-0.012628853,0.006202318,-0.034057428,0.755877763,2.343540356
0.273085478,0.010098423,-0.027563921,0.066267263,0.147760783,0.754254386,2.354903994
0.284773792,0.008475046,-0.050291197,0.032176349,0.111721816,0.763020622,2.363020878
-0.034706779,-0.025615868,-0.021395089,0.008475046,0.008475046,0.755877763,2.371787114
-0.28957695,-0.023667816,0.050033494,0.012695826,-0.065875615,0.753605036,2.376007893
-0.152563941,-0.054836652,0.035423102,0.005228292,-0.063602888,0.713020614,2.382826076
-0.108083414,-0.033083402,-0.02691457,0.015293229,-0.158732773,0.758150491,2.392566338
0.086397137,-0.023018465,-0.010356126,-0.035680805,-0.192823688,0.755228413,2.396787118
0.031202322,0.045812714,0.006526994,-0.074317175,-0.036979507,0.749708931,2.401981924
-0.072369123,0.057176353,-0.093148347,-0.10840809,-0.198343169,0.75263101,2.413345562
0.001981539,0.034124401,-0.080486007,-0.054836652,-0.027888596,0.750358282,2.419189719
-0.018148335,0.003929591,-0.023343141,0.067241289,0.258475086,0.744514125,2.423410498
-0.030810675,-0.030485999,0.0552283,0.057176353,0.120812726,0.742890748,2.430553357
0.061397132,-0.079187306,0.104254282,0.025682841,-0.039901585,0.738669968,2.431527383
0.087371163,-0.090550944,0.100358178,0.026981543,-0.021395089,0.736072565,2.445488424
-0.020745738,-0.039901585,0.018215307,0.018864658,0.061397132,0.735098539,2.450358555
-0.254187334,0.010747774,-0.066849641,0.019514009,0.078604927,0.738345293,2.452306607
-0.309382148,0.022436087,-0.095421074,-0.027563921,0.011397124,0.733150487,2.455228685
-0.00094054,-0.021070413,-0.083408086,0.034449076,-0.005485995,0.733475162,2.461397518
0.329578994,-0.029836648,-0.05710938,0.043539987,0.036721804,0.734449189,2.471137779
0.207501052,-0.004187294,0.013994527,0.013994527,0.053604923,0.737371267,2.471137779
-0.216200315,-0.034382104,0.091591943,-0.012628853,0.08477376,0.728605032,2.475683234
-0.371070469,-0.033408078,0.112695842,-0.012628853,0.038345181,0.730228409,2.481527391
0.05035817,0.012371151,0.040293233,0.002955565,0.044514013,0.729579058,2.48509882
0.34386471,0.00750102,-0.039901585,-0.029187298,0.081527006,0.7224362,2.487696223
0.230228328,-0.048992496,0.030877647,-0.024641842,-0.012304178,0.726332304,2.493215704
0.157825719,-0.077888604,0.052955573,-0.007758723,-0.032434051,0.723734901,2.50198194
0.420163424,-0.015550932,-0.03113535,0.062371159,-0.013278204,0.721137498,2.511722201
0.644838785,0.026332192,-0.030161324,0.067565965,0.023410113,0.721786849,2.513020902
0.261072489,0.011072449,0.004903617,0.006202318,0.013020501,0.68802061,2.51529363
-0.257758763,0.04613739,-0.006784697,-0.086005489,-0.036005481,0.715618017,2.51951441
-0.288927599,0.087371163,-0.021395089,-0.101914582,0.00750102,0.716592043,2.524059865
-0.047369119,0.091916618,-0.071719772,-0.084706787,-0.007434047,0.705877755,2.52373519
0.354578998,0.065293237,-0.055810679,-0.071395097,-0.028213271,0.716916718,2.529579347
0.551007601,0.005228292,0.100682853,-0.006135346,-0.066200291,0.712046588,2.533150776
0.498085514,-0.044771716,0.233150407,0.012371151,-0.000291189,0.706851781,2.535098828
0.420163424,-0.006135346,0.152306238,0.005228292,0.015293229,0.70977386,2.541917011
0.428280308,0.035747778,-0.030810675,0.011397124,0.148085458,0.711072561,2.540293634
0.324059512,0.069189342,-0.171395113,0.019838684,0.066916614,0.708799834,2.549059869
-0.235031486,0.078604927,-0.25516136,-0.067823667,-0.140550952,0.711721912,2.554904026
-0.325940592,0.055877651,-0.134706795,-0.09574575,-0.175615893,0.716916718,2.551981948
-0.340875659,0.012046475,0.018215307,-0.051914574,-0.082109384,0.71821542,2.552306623
-0.080486007,0.016267255,0.100682853,-0.026265219,-0.042174313,0.718540095,2.552955974
0.304903665,0.019514009,0.088345189,0.008150371,0.02016336,0.723410226,2.559449481
0.281202363,0.043215311,0.061397132,0.04191661,0.105228308,0.71399464,2.55815078
0.139319223,0.040942584,0.016916606,-0.023018465,0.162371175,0.717241394,2.561397534
-0.088278216,-0.034057428,-0.005485995,-0.036330156,0.142890652,0.71821542,2.560748183
-0.254836684,-0.063602888,-0.022369115,-0.009706775,0.078604927,0.717241394,2.560098832
-0.173343165,0.010423098,-0.098667828,-0.020745738,-0.025615868,0.722111524,2.565293638
-0.089576918,0.036072453,-0.126914586,0.029903621,-0.218148367,0.723734901,2.564319612
0.156851693,0.020488035,-0.009706775,0.034773752,-0.121070429,0.724708927,2.563994937
0.673734893,0.069838692,0.074059472,0.008799721,0.009124397,0.723734901,2.565618313
0.462371223,0.051656871,0.065293237,0.014968554,0.24418937,0.723734901,2.564319612
-0.093473022,0.057176353,0.061072457,0.017241281,0.169838708,0.694189442,2.562696235
-0.137304198,0.03347505,-0.061979511,-0.076914578,-0.046070417,0.724708927,2.560098832
-0.232109408,0.03769583,-0.065226264,-0.138927575,-0.083732761,0.720163472,2.557826104
-0.417174373,0.039319207,-0.007434047,-0.003213267,-0.095096399,0.702955677,2.55815078
-0.184057452,0.034124401,-0.032434051,0.058475054,-0.001914566,0.721137498,2.558475455
-0.088278216,0.031202322,0.031851673,0.073085446,0.217241313,0.723410226,2.554579351
0.157501044,0.055877651,0.029578946,0.093215319,0.176656891,0.727631006,2.546787142
0.166267279,0.104903633,0.106851685,0.021137386,0.000682837,0.725682953,2.545163765
-0.265550972,0.063345185,0.087371163,-0.027888596,0.031202322,0.7224362,2.533475451
-0.425291257,-0.033408078,-0.126265235,-0.006135346,0.063020509,0.715293341,2.535748179
-0.216200315,-0.028862622,-0.204836676,0.075358174,-0.012953529,0.717241394,2.538345582
-0.232758759,0.02438414,-0.104511985,0.106851685,-0.037304182,0.711072561,2.53217675
-0.358083454,0.030552972,-0.082434059,-0.052239249,-0.054836652,0.705228405,2.52860532
-0.435356194,0.007176345,-0.036330156,-0.126265235,-0.107758739,0.707825808,2.51951441
-0.381135406,0.000358162,-0.004836644,-0.03957691,-0.052239249,0.709124509,2.515618305
-0.241849669,-0.001914566,-0.07464185,-0.032434051,0.032501024,0.699059572,2.513345578
-0.102888608,0.153604939,-0.120745754,0.045163364,0.065617912,0.700033599,2.50685207
-0.258408114,0.038020505,-0.093148347,0.062695834,0.031526998,0.697760871,2.502306615
-0.239576942,-0.144447056,0.057825703,0.065617912,-0.024641842,0.703605028,2.495813107
-0.06555094,-0.128862638,0.047111416,0.047111416,-0.01425223,0.690618013,2.488020898
0.035747778,-0.083408086,-0.004511969,-0.058408082,-0.081784709,0.68866996,2.463670245
0.141591951,0.004578942,-0.019122361,-0.039252234,-0.226265251,0.7013323,2.477631286
0.278929635,-0.010680801,-0.082758735,0.062695834,-0.161330176,0.686072557,2.473410506
0.247436123,-0.066524966,-0.048343145,0.064643886,-0.039252234,0.68802061,2.465293622
0.150682861,-0.075940552,-0.075940552,-0.041849637,-0.035031454,0.658799826,2.45912479
0.154903641,-0.059382108,-0.04379769,-0.148667836,0.057176353,0.685423207,2.443540372
0.115942596,-0.048343145,0.097436099,-0.009057424,0.069838692,0.685747882,2.43737154
0.120488051,0.005877643,0.095488047,0.083150383,-0.098992504,0.679903725,2.428605304
0.209449104,0.028280244,-0.080810683,0.001007512,-0.153213292,0.68379983,2.416916991
0.217565989,-0.052563925,-0.126589911,-0.073343149,-0.122044455,0.677306322,2.403280625
0.138669872,-0.116849649,-0.06133016,-0.043148339,-0.006135346,0.668540087,2.39451439
0.096137398,-0.058083406,0.029903621,0.015617904,0.058799729,0.666267359,2.385423479
0.079254278,-0.015875607,0.049384144,0.031202322,0.029903621,0.661072553,2.375358543
0.202955597,0.029578946,0.031202322,0.03347505,0.082501032,0.653929695,2.356527371
0.076656875,0.04613739,-0.0528886,0.09386467,0.185098451,0.652306318,2.342891005
-0.00516132,0.036072453,-0.017823659,-0.008083398,0.184124425,0.648085538,2.320813079
0.139319223,-0.003537943,0.104903633,0.02438414,0.049384144,0.638669952,2.290942945
0.149708835,-0.01425223,0.04613739,-0.034057428,0.041267259,0.637371251,2.264644239
0.099384152,-0.021070413,-0.091849645,-0.047369119,0.069838692,0.637046575,2.252955926
0.220488067,-0.034706779,-0.109382116,-0.000291189,0.121137402,0.626981639,2.221462414
0.258799762,0.02016336,0.068539991,-0.021070413,0.141591951,0.631202419,2.199384488
0.126007532,0.059124405,0.255877683,-0.115875623,0.146786757,0.627955665,2.1873715
-0.189252258,0.097436099,0.056202326,-0.113927571,0.165293253,0.622436184,2.163670197
-0.257434087,0.043539987,-0.09996653,-0.039901585,0.020488035,0.613345273,2.134449413
-0.085031462,-0.016524958,-0.061979511,0.058799729,-0.15191459,0.608475142,2.08477408
0.009449072,-0.052239249,0.024708815,0.155228316,-0.224317199,0.591916698,2.085098756
0.204903649,-0.079187306,0.097111424,0.020488035,0.031851673,0.58964397,2.062046804
0.170488059,-0.03535613,0.069189342,-0.206135378,0.314968602,0.587695918,2.031851994
0.354903673,0.034124401,0.14516338,-0.299641886,0.282501064,0.570488123,1.99841043
-0.007434047,0.060423106,0.106851685,0.054903625,0.082176357,0.577306306,1.971787049
-0.378213328,0.049384144,-0.044771716,0.163345201,0.030228296,0.571786825,1.942890941
-0.202239273,-0.02269379,-0.049641846,-0.016849633,-0.019122361,0.562695914,1.920163664
-0.04022626,3.35E-05,-0.064252238,-0.089252242,-0.086979515,0.560098511,1.896462362
0.166267279,0.032825699,-0.080161332,-0.081460033,-0.10840809,0.557176433,1.870813007
0.002955565,-0.000291189,-0.085031462,0.086072461,0.051981547,0.543864742,1.849059757
-0.379836705,0.007176345,-0.1386029,0.131851689,0.254254306,0.54613747,1.832176637
-0.2032133,0.003604915,-0.151589915,0.123734805,0.061721808,0.542890716,1.810748062
-0.226265251,-0.000615864,-0.035031454,0.001981539,-0.183732777,0.535098507,1.785423383
-0.326589943,0.023410113,0.022436087,-0.170096411,-0.041200287,0.526981623,1.758150651
-0.192174337,0.032176349,0.080228304,0.014643878,0.18379975,0.517890712,1.725033763
-0.109382116,-0.032109376,0.06789064,0.120812726,0.005228292,0.501007593,1.693215576
0.036397128,-0.152888616,0.00750102,0.101656879,0.085098435,0.50263097,1.667890897
-0.108083414,-0.136979523,0.05100752,0.097760775,0.296786781,0.48996863,1.638020762
-0.287628898,-0.003213267,-0.060356134,0.094838696,0.108799737,0.466916678,1.61009868
-0.032758727,0.047760767,-0.279187338,0.082825707,-0.10840809,0.466916678,1.577631142
-0.127239261,0.109449088,-0.165875631,-0.012953529,-0.00581067,0.457501092,1.557501269
-0.151589915,0.088345189,0.124384156,-0.048343145,-0.008083398,0.439968622,1.532501265
-0.422693854,-0.032109376,0.264319243,-0.16879771,0.082501032,0.445812779,1.507501261
-0.36262891,-0.033408078,0.149708835,-0.146719784,0.021786737,0.436072517,1.439968782
0.161721824,0.004578942,0.002306214,-0.126589911,-0.170421087,0.40847511,1.456202551
0.278280284,-0.050615872,-0.032758727,-0.108732765,-0.425291257,0.421786801,1.428929819
-0.208408106,-0.034382104,-0.085680813,-0.114576922,-0.295096431,0.416267319,1.404579166
-0.305161368,0.025358166,-0.161654851,-0.098343153,-0.019122361,0.389319263,1.383475267
-0.179187322,-0.007434047,0.077306226,0.081851681,0.446786805,0.396137446,1.362696043
0.047436091,-0.017174309,0.062371159,0.096137398,0.302630937,0.384124457,1.345488248
0.091267267,0.058150379,0.026981543,-0.017823659,-0.357434104,0.373085494,1.312696035
0.152306238,0.051332196,-0.020421062,0.037371155,-0.631460122,0.36983874,1.284773952
0.203604948,0.073085446,-0.112304194,0.070812718,-0.507109452,0.369514065,1.247760959
-0.00094054,0.054254274,-0.158732773,-0.233083434,-0.407109436,0.350033542,1.222111604
-0.295096431,0.051656871,-0.036330156,-0.399966578,-0.257434087,0.355877699,1.196137574
-0.265226297,0.098410125,0.21464391,-0.087628865,0.013994527,0.34808549,1.16204666
-0.148018486,0.102955581,0.259124437,0.030552972,0.194189362,0.338669904,1.130553148
-0.043473014,-0.016849633,0.268215347,0.172436111,-0.082758735,0.336072501,1.097111584
0.129578962,-0.051265223,0.182501048,0.33055302,-0.585680893,0.333799774,1.063994696
0.379254326,-0.047369119,-0.006784697,0.30457899,-0.472693862,0.306527042,1.037371315
-0.037628857,-0.071719772,-0.237953565,0.215942612,0.226007549,0.310423146,1.01594274
-0.273667856,-0.076589903,0.038669856,0.094189346,0.535423183,0.301981587,0.995163516
-0.175940568,-0.09152497,0.202630921,0.074059472,0.521137466,0.277306258,0.975033643
-0.360356182,-0.025291193,0.203604948,0.104903633,0.202955597,0.289968598,0.948410262
-0.35418735,0.025682841,0.215617936,0.108150387,-0.408408138,0.280228336,0.928605064
0.282176389,0.038994531,0.250682877,-0.048992496,-0.442823728,0.282176389,0.913020646
0.247760799,-0.011979503,0.046786741,-0.179187322,0.101332204,0.272111452,0.896462202
0.069514017,-0.062628861,-0.204187326,0.079254278,0.514643958,0.263994568,0.835423231
-0.249641878,-0.103213284,-0.013927555,0.353604972,0.642241382,0.24483872,0.837046608
-0.837628986,-0.142499004,0.013345177,0.116591947,0.114319219,0.258799762,0.812695954
-0.499966594,-0.037628857,-0.211654859,-0.232758759,0.271786777,0.256202359,0.785747898
0.342566009,0.057176353,-0.193473038,-0.256784737,-0.126589911,0.252306254,0.748734905
0.476332264,-0.045745742,-0.217499016,-0.007434047,-0.423343205,0.25328028,0.715618017
0.175033514,-0.140875627,-0.128537963,0.138345197,-0.563602968,0.252955605,0.695488143
-0.089252242,-0.007758723,0.039319207,0.041591935,-0.065226264,0.250033526,0.672760867
-0.128537963,0.124708831,0.288020545,-0.030161324,0.822436216,0.246462097,0.641592031
0.036721804,0.090942592,0.513020582,0.067241289,0.577306306,0.243540019,0.619514105
-0.025291193,0.002630889,-0.122044455,-0.092174321,-0.798343265,0.24061794,0.591267347
0.063345185,0.077306226,-0.902564061,-0.353862674,-1.594771964,0.236072485,0.566592019
0.052630897,-0.047369119,-1.084706947,-0.29379773,-0.606135442,0.232825731,0.543864742
0.040617908,0.047111416,-0.730810787,-0.098992504,-0.028213271,0.226332224,0.522436167
0.371137442,0.111072465,0.159124421,0.548410198,-0.1386029,0.230228328,0.49841019
0.398085498,-0.001265215,0.566592019,0.444838752,-0.90613549,0.234773784,0.473410186
-0.190226284,-0.021070413,0.117241297,-0.614901677,-0.498018542,0.222111444,0.448085506
-0.079836656,0.099059476,-0.26360292,-0.329836697,0.233799758,0.231202355,0.431202387
0.155552992,0.020488035,-0.033732753,0.338669904,0.070812718,0.232825731,0.409449136
0.454579014,-0.108732765,0.324708863,0.210098455,-0.120745754,0.21886469,0.386072509
-0.145421083,-0.106135362,0.423085502,-0.045421066,0.545812795,0.234449108,0.365942636
-0.179836672,-0.046395093,-0.332758775,-0.243797722,0.345488087,0.236397161,0.334124449
0.470488107,0.022111412,-0.643148435,-0.294771756,-1.989901898,0.229903653,0.318864706
0.601981635,0.087046487,-0.364252286,0.071462069,-1.641849894,0.237695862,0.299059508
0.2701634,0.102630905,-0.145745758,0.424059528,0.199059492,0.238669888,0.248734825
-0.072693798,0.152306238,0.112371167,0.265293269,1.124059641,0.220812742,0.271786777
-0.563927643,0.074059472,0.200682869,-0.199317195,0.894189474,0.253604956,0.254903657
-0.778213392,-0.04379769,0.301332236,-0.304187342,0.165942604,0.255553008,0.240293265
-0.601589987,-0.095421074,0.314643926,-0.273343181,-0.13925225,0.269514049,0.222111444
0.169189358,-0.034706779,0.10652701,-0.10418731,-0.273667856,0.269189374,0.206202351
0.861072585,0.032825699,-0.003862618,-0.038927559,0.009124397,0.272760803,0.200358194
0.728605032,0.144189354,-0.021070413,0.038020505,0.422111476,0.280228336,0.193540011
0.001981539,0.126007532,-0.318797734,0.023085438,-0.079511981,0.285747818,0.186397153
0.345488087,0.009773748,-0.282434091,-0.040875611,-0.594122453,0.287046519,0.175682865
0.141916626,0.044838688,0.097436099,-0.108732765,0.308150419,0.289319247,0.164319227
-0.323667864,0.116591947,0.163669876,-0.001914566,0.891267395,0.299384184,0.143540003
-0.341849685,0.255553008,-0.066524966,0.186721828,0.257825735,0.311397173,0.11918935
-0.297693834,0.271462101,-0.092174321,0.176656891,-0.226914602,0.306527042,0.122760779
-0.115226272,0.141916626,-0.051265223,0.02503349,-0.23762889,0.323085486,0.113020517
0.240293265,0.055552976,-0.232758759,-0.069122369,0.079254278,0.326981591,0.101332204
0.213020533,0.042890636,-0.058083406,-0.161654851,0.079578954,0.316267303,0.08964389
0.340617957,0.001656863,0.22730625,-0.01003145,-0.026265219,0.346462113,0.08899454
0.339319255,0.130228312,0.212695858,0.087046487,-0.041849637,0.355877699,0.077306226
0.383150431,0.23574781,0.043539987,0.036397128,0.386072509,0.341916658,0.053929599
0.436072517,0.099708827,0.137371171,0.001332188,0.341267307,0.371786793,0.043864662
0.263020541,0.252306254,0.008475046,-0.062628861,0.116916622,0.377630949,0.034124401
0.012371151,0.301656911,-0.230810707,-0.022369115,0.061721808,0.373085494,0.027630893
0.013994527,0.28347509,-0.296719808,0.001981539,-0.106784713,0.385098483,0.027630893
0.208475078,0.259773788,0.001656863,0.008150371,-0.080810683,0.387371211,0.022760763
0.203604948,0.108475062,0.105552984,-0.004836644,0.075033498,0.366916662,0.027306218
0.034773752,-0.080161332,0.252306254,-0.158732773,0.329903669,0.389968614,0.030228296
0.055877651,0.100033502,0.306202367,-0.175291217,0.335747826,0.389319263,0.031202322
-0.068148343,0.24418937,0.113994544,-0.235356162,0.098734801,0.397111472,0.03769583
0.010747774,0.21464391,0.136397145,-0.233083434,-0.118148351,0.399708875,0.043215311
0.023410113,-0.035680805,0.178929619,-0.069122369,0.088345189,0.3993842,0.05035817
-0.096395101,-0.138278224,0.051981547,0.227955601,0.325682889,0.394514069,0.056202326
-0.255486035,-0.150940564,-0.054187302,0.232176381,0.210098455,0.399708875,0.058150379
-0.314901629,-0.262628894,-0.173343165,0.025358166,0.175033514,0.399708875,0.058799729
-0.243148371,-0.297044483,-0.120745754,0.001981539,0.275682881,0.381202379,0.063994536
-0.090875619,-0.261979543,0.1409426,-0.109382116,0.376007573,0.400358226,0.065942588
-0.109382116,-0.096395101,0.212046507,-0.281460065,0.181527022,0.397436147,0.060098431
-0.004836644,-0.059057432,0.097760775,-0.300615913,-0.269771752,0.379903677,0.067565965
-0.12594056,-0.16457693,-0.115875623,0.004903617,-0.085680813,0.398410174,0.06789064
-0.560031539,-0.299317211,-0.107109388,0.420488099,0.033150375,0.397111472,0.070488043
-0.687628962,-0.390226317,-0.005485995,0.385747834,0.126981559,0.379579002,0.074384148
-0.650291293,-0.389576966,0.042890636,0.172436111,0.234773784,0.397111472,0.074384148
-0.419122425,-0.364901637,0.012695826,-0.086005489,-0.352239297,0.3993842,0.074708823
-0.108083414,-0.218797718,-0.005485995,-0.230161356,-0.373018522,0.384773808,0.078604927
0.213020533,-0.08308341,-0.024966518,-0.086979515,0.307176393,0.401981603,0.08120233
0.242241317,-0.015226256,-0.032109376,-0.160031474,0.49905954,0.401332252,0.082825707
-0.1386029,-0.036654831,-0.021395089,-0.082758735,-0.340226309,0.405553032,0.085098435
-0.597044532,-0.120745754,-0.076914578,0.326007565,-0.508408154,0.398410174,0.08542311
-0.476914642,-0.049641846,-0.221719796,0.441591999,-0.211005509,0.39516342,0.056202326
-0.254512009,-0.000615864,-0.312304226,0.257176385,-0.060356134,0.372111468,0.084124409
-0.191524986,-0.034382104,-0.273992532,-0.088927567,-0.105161336,0.390293289,0.083475058
-0.04444704,-0.061979511,-0.122044455,-0.30710942,-0.063602888,0.387371211,0.084449084
-0.008083398,0.048410117,0.150358186,-0.228862654,-0.04866782,0.389968614,0.087695838
-0.152239265,0.175033514,0.252306254,-0.079836656,0.168215331,0.385098483,0.088345189
-0.42301853,0.199708843,-0.031784701,-0.085031462,-0.036330156,0.384449132,0.089968566
-0.454187366,0.083475058,-0.016849633,0.012695826,-0.61684973,0.38250108,0.090293241
-0.449966586,-0.146070433,0.11918935,0.195812738,-0.588602972,0.380553028,0.090942592
-0.34574579,-0.100615881,0.026981543,0.173085462,-0.286654871,0.380553028,0.091267267
-0.100291205,0.109124413,-0.082758735,0.126656883,0.124708831,0.375358222,0.091591943
-0.016524958,0.179254294,-0.028213271,0.171462085,0.286072493,0.379903677,0.091591943
0.109449088,0.153604939,0.037046479,0.186072477,0.190617932,0.378929651,0.088020513
0.165293253,0.013345177,0.042241285,-0.06133016,0.15425429,0.36074783,0.091267267
-0.084057436,-0.135356146,0.099708827,-0.255486035,-0.037628857,0.376656923,0.092565969
-0.218797718,-0.156460045,0.008799721,-0.159382124,-0.056460029,0.376656923,0.092890644
0.054254274,-0.066200291,-0.015550932,0.015293229,0.112695842,0.365617961,0.093539995
0.078280252,0.033799725,0.018864658,0.068539991,0.116916622,0.376981599,0.094189346
0.047436091,0.07211142,-0.070745746,0.149708835,-0.004511969,0.376981599,0.094514021
0.227955601,0.040293233,-0.049641846,0.151007536,-0.128537963,0.360098479,0.094514021
0.44711148,0.021137386,0.027630893,0.030552972,-0.114901597,0.375682897,0.095812722
0.15003351,0.104578958,0.064968562,-0.080486007,0.074059472,0.375033546,0.096462073
0.236721836,0.094838696,0.129254286,-0.045096391,0.340942632,0.357501076,0.096137398
0.268864698,0.035098427,0.090942592,0.006851669,0.234773784,0.374384196,0.096786749
0.312371199,-0.041524962,-0.075940552,-0.111654843,-0.085680813,0.376007573,0.072760771
0.192565985,0.001007512,-0.189252258,-0.066849641,-0.136654847,0.347760815,0.096462073
0.240293265,0.092241293,-0.206784729,-0.071719772,0.022111412,0.376656923,0.096137398
0.271137426,0.094514021,-0.122369131,-0.077563929,0.275358206,0.377630949,0.096137398
0.140293249,0.02925427,0.074708823,0.048410117,0.275682881,0.385098483,0.095163372
0.278929635,-0.017823659,-0.003213267,0.035098427,0.001656863,0.378929651,0.096786749
0.072760771,0.019189334,0.001656863,0.038345181,-0.205486027,0.379903677,0.095488047
0.174708839,0.071137394,0.208150403,0.050033494,-1.370421279,0.375033546,0.095488047
0.246786773,0.063994536,0.285423142,0.040617908,-1.983733066,0.381851729,0.095488047
-0.261654867,0.065617912,0.511072529,0.070488043,1.43802073,0.381527054,0.095812722
-0.320096435,-0.028862622,-0.470421135,0.005228292,2.067890961,0.369514065,0.094514021
0.161072473,-0.152563941,-0.615226353,-0.135356146,0.950358314,0.382176405,0.095163372
0.23574781,-0.22496655,-0.170096411,-0.16944706,0.190617932,0.381851729,0.08899454
0.077630901,-0.126914586,-0.024966518,-0.048343145,0.012695826,0.368215364,0.094838696
-0.190875635,-0.052563925,0.191591959,0.092890644,-0.214576938,0.381202379,0.094838696
-0.075615876,-0.132109392,0.252630929,0.117241297,-0.316525006,0.381851729,0.095488047
0.154578966,-0.253537983,0.001656863,0.331202371,-0.043473014,0.362371207,0.094514021
0.20133222,-0.306784745,-0.023018465,0.327955617,0.021137386,0.382176405,0.095488047
-0.180810699,-0.118473026,0.056851677,0.070163368,0.195812738,0.385747834,0.095488047
-0.219122393,0.109773764,-0.006135346,0.001981539,0.377955625,0.361721856,0.095163372
0.070812718,-0.071395097,-0.059057432,-0.058408082,0.514643958,0.385098483,0.094838696
-0.071070421,-0.218473042,-0.077888604,-0.046070417,0.32633224,0.385747834,0.095163372
-0.278862662,-0.149317187,-0.060031458,0.027630893,0.093215319,0.362695882,0.094838696
0.151332212,-0.010356126,0.020488035,-0.066524966,0.217890664,0.384449132,0.095163372
0.559124485,0.217241313,-0.072369123,-0.077563929,0.181851697,0.387371211,0.081527006
0.051981547,0.478929667,-0.094122373,-0.057434055,-0.061005485,0.351981595,0.09386467
0.215942612,0.147760783,-0.015226256,-0.047693794,-0.064576914,0.388020562,0.093539995
0.428604984,-0.254512009,-0.016200283,0.070812718,-0.113927571,0.387695886,0.09386467
0.202630921,-0.452888664,0.073410121,-0.00581067,-0.356784753,0.39516342,0.093539995
0.564643966,-0.336005529,-0.011005477,-0.074966526,-0.367174365,0.389319263,0.093539995
0.282176389,-0.086005489,0.022436087,0.15003351,-0.185680829,0.390617965,0.092565969
-0.01003145,0.110098439,0.071786745,0.225033522,0.032501024,0.380877703,0.092565969
0.017890632,0.275358206,0.055552976,-0.050940548,0.117890648,0.391267315,0.092565969
0.120812726,0.175682865,-0.025291193,-0.221395121,-0.014576906,0.392890692,0.093539995
0.326656915,-0.090875619,-0.055810679,-0.188602908,-0.327888644,0.385098483,0.093539995
0.248085474,-0.167499008,-0.08308341,-0.346070465,0.068539991,0.391267315,0.094189346
0.138669872,-0.174641866,-0.010680801,-0.258083438,0.306527042,0.393540043,0.08964389
0.092241293,-0.338602932,0.118539999,0.157501044,-0.036654831,0.379579002,0.09386467
0.088345189,-0.468797758,0.148410133,0.36496861,-0.048343145,0.393864718,0.09386467
0.038669856,-0.160680825,0.032176349,0.427630957,0.05035817,0.394189394,0.094189346
-0.041524962,0.164319227,-0.045421066,0.276007557,0.014643878,0.371137442,0.09386467
-0.049966522,0.125033506,0.012046475,-0.041200287,-0.014576906,0.394189394,0.09386467
-0.16457693,-0.246070449,0.101656879,-0.193473038,-0.097693802,0.396137446,0.094189346
-0.249966554,-0.357758779,0.263345217,-0.244122397,-0.175291217,0.374708871,0.09386467
-0.257434087,-0.096070425,0.083799733,-0.231784733,-0.084382112,0.397760823,0.09386467
-0.159057448,0.037371155,-0.189901609,0.100358178,0.035747778,0.398085498,0.094514021
-0.21652499,0.185423126,-0.246070449,0.423085502,0.049708819,0.378604976,0.094189346
-0.25094058,0.256851709,-0.122369131,0.287046519,0.053280248,0.3993842,0.094514021
-0.47496659,0.152955589,-0.012304178,-0.042174313,0.012046475,0.399059524,0.08964389
-1.547369359,-0.091849645,-0.038602884,-0.238602916,-0.010356126,0.364643934,0.092890644
0.347111464,-0.292823704,-0.023018465,0.088669864,-0.034057428,0.399059524,0.092565969
1.309124605,-0.234706811,0.04191661,0.307825743,-0.168473034,0.399059524,0.092890644
0.551656951,0.039319207,-0.066200291,0.018864658,-0.098343153,0.406527058,0.092890644
-0.250291229,0.23996859,-0.131135366,-0.535031535,0.010747774,0.400358226,0.093215319
-0.590226349,0.211397157,-0.136005497,-0.676589999,0.008150371,0.400682901,0.092890644
-0.457109444,0.120163376,-0.1821094,-0.046070417,-0.103537959,0.397111472,0.092565969
-0.227239277,0.038669856,-0.128213288,0.47308551,0.177306242,0.403280304,0.093215319
-0.031784701,-0.039901585,-0.067174317,0.469189406,0.186072477,0.402306278,0.092890644
0.053604923,-0.231784733,0.023410113,0.02503349,-0.156460045,0.402955629,0.09386467
0.023085438,-0.460356198,0.02081271,-0.23405746,-0.391200343,0.40360498,0.093215319
0.118864674,0.328604968,-0.001589891,-0.0093821,-0.254512009,0.402306278,0.093215319
0.205553,0.359449128,0.003929591,0.041591935,0.146137406,0.396786797,0.093215319
-0.028862622,-0.041200287,0.093215319,-0.108083414,0.158150395,0.402955629,0.095163372
-0.144447056,-0.20808343,0.056202326,-0.136330172,-0.036330156,0.40360498,0.095488047
-0.13016134,-0.3759406,0.002630889,-0.016524958,-0.063278212,0.385747834,0.095163372
-0.084057436,-0.28957695,0.039319207,-0.127888612,0.029903621,0.40425433,0.095488047
-0.007109372,0.019514009,0.032501024,-0.16879771,0.017890632,0.40425433,0.095812722
-0.098018477,0.315617952,-0.016200283,-0.025615868,-0.059706783,0.384773808,0.094838696
-0.279187338,0.251332228,-0.04379769,0.11918935,-0.006784697,0.406527058,0.096137398
-0.337628906,0.023734789,-0.047693794,0.157501044,-0.037628857,0.407176409,0.096137398
-0.247369151,-0.003862618,-0.016849633,0.167565981,0.012695826,0.388020562,0.096786749
-0.011005477,0.1198387,-0.025940544,3.35E-05,0.055552976,0.410423163,0.096786749
0.173085462,-0.009706775,0.03347505,-0.103213284,0.050682845,0.408150435,0.097760775
0.303280288,-0.088927567,0.074059472,-0.072369123,0.073734797,0.370163416,0.096137398
0.058475054,-0.039901585,0.004254266,-0.188602908,0.012695826,0.407825759,0.096462073
-0.19477174,0.019514009,0.019514009,-0.222693822,-0.079511981,0.409124461,0.094514021
-0.173343165,0.116591947,0.048734793,-0.17788862,-0.001265215,0.416591995,0.094189346
-0.088602892,0.133150391,0.042890636,0.042241285,-0.056460029,0.40847511,0.094514021
-0.162628877,0.108150387,0.037046479,0.248085474,-0.037628857,0.408799786,0.095163372
-0.086330164,0.162371175,0.026656867,-0.010680801,0.057825703,0.40360498,0.095488047
0.228280276,0.148734809,0.003929591,0.008475046,-0.065875615,0.408150435,0.096137398
0.309124445,0.068215315,0.014319203,0.090293241,-0.160680825,0.408799786,0.096462073
0.237695862,0.105552984,-0.024317167,0.054903625,-0.021395089,0.400682901,0.096137398
0.106202334,0.106851685,-0.029187298,0.006851669,-0.006784697,0.409449136,0.096137398
-0.07886263,-0.047693794,-0.044122365,-0.252888632,-0.115226272,0.410747838,0.095163372
-0.205810703,0.023410113,-0.012953529,-0.090875619,-0.087628865,0.403929655,0.096786749
-0.136654847,-0.175940568,0.024708815,0.182501048,-0.023343141,0.410747838,0.097436099
0.047436091,-0.21230421,-0.086330164,-0.004511969,-0.084057436,0.412046539,0.098410125
0.134449092,0.067241289,-0.01425223,-0.102888608,-0.204836676,0.40360498,0.099059476
0.038669856,0.173410137,0.033150375,0.104903633,0.05457895,0.411721864,0.099059476
-0.001914566,0.062371159,-0.007758723,0.184124425,0.112695842,0.41269589,0.098410125
-0.006460021,-0.615551028,-0.000615864,-0.037628857,0.026332192,0.391267315,0.098410125
3.35E-05,-0.623343237,-0.096070425,-0.286979547,-0.016524958,0.413994592,0.098410125
-0.117174325,-0.471070485,-0.176914594,-0.210680833,-0.084706787,0.417566021,0.098734801
-0.192174337,0.174059488,-0.071070421,0.013345177,-0.124317183,0.394838744,0.09808545
-0.03957691,0.71886477,0.014319203,0.037046479,-0.29444708,0.417890696,0.098734801
0.125682857,0.513345257,3.35E-05,0.042565961,-0.014576906,0.420163424,0.102630905
0.231851705,0.089319215,0.044514013,0.196137414,0.238669888,0.381527054,0.098734801
0.233799758,-0.131135366,-0.017174309,0.153280264,-0.072044447,0.418540047,0.098410125
0.181202347,-0.049641846,0.037371155,0.181202347,-0.076589903,0.420163424,0.098410125
0.047760767,0.014319203,0.086072461,-0.013927555,-0.117174325,0.429903685,0.09808545
0.058799729,-0.025940544,-0.002888592,-0.313927603,-0.19899252,0.419838748,0.098410125
0.002955565,0.054903625,-0.001914566,-0.043473014,-0.127563937,0.420812775,0.097760775
0.008799721,0.135747794,-0.051914574,0.004903617,0.102955581,0.410098487,0.097760775
0.134124417,0.190617932,0.018864658,-0.006784697,0.21464391,0.419838748,0.097436099
0.201656895,0.083150383,0.05100752,0.096786749,0.198085466,0.420488099,0.098410125
0.117890648,0.121462077,-0.024317167,0.059124405,0.072436095,0.405553032,0.097436099
0.151656887,0.302955613,-0.106784713,-0.044122365,-0.088278216,0.42113745,0.09808545
0.349384192,0.261072489,-0.12594056,0.048410117,0.131527014,0.423410178,0.097111424
0.414968618,0.072436095,-0.083732761,-0.145745758,0.422760827,0.411072513,0.09808545
0.109773764,-0.01425223,0.008475046,-0.157434071,0.276981583,0.421786801,0.097436099
-0.037628857,-0.042174313,0.019838684,0.192565985,-0.117499,0.424059528,0.096786749
-0.060031458,-0.068148343,0.066267263,-0.051265223,-0.579512061,0.414968618,0.097111424
-0.119122377,-0.136979523,0.114319219,-0.53113543,-0.540875691,0.424059528,0.097760775
-0.079511981,-0.167499008,0.060747782,-0.149317187,0.43379979,0.424059528,0.097436099
-0.125291209,-0.155810695,-0.09574575,0.046786741,0.700358274,0.386397185,0.097111424
-0.155161344,-0.157434071,-0.119122377,-0.012304178,-0.195096415,0.425033554,0.097760775
-0.444447104,-0.009706775,-0.083408086,0.161397149,-0.053213276,0.428929659,0.09808545
-0.118797702,0.107501036,-0.033732753,0.131527014,0.392241341,0.397111472,0.096137398
0.304254314,0.112371167,0.043539987,0.010423098,-0.223667848,0.426981607,0.094838696
0.320163408,0.034773752,0.01659193,0.011397124,-0.10483666,0.42957901,0.098734801
0.119514025,0.075682849,-0.011330152,0.05944908,-0.25938214,0.380877703,0.09386467
0.021786737,0.057825703,-0.003537943,0.053280248,-0.253862658,0.43022836,0.09386467
-0.230810707,0.025682841,0.083799733,0.073734797,-0.02691457,0.432501088,0.094189346
-0.221395121,0.004903617,0.095488047,0.094189346,-0.082434059,0.439643946,0.092890644
-0.217823692,-0.007758723,0.116267271,0.003604915,-0.135356146,0.432825764,0.092565969
-0.135356146,0.009124397,0.044189338,-0.014901581,0.142241301,0.433150439,0.091267267
-0.068797694,0.011397124,-0.078537955,0.085747786,0.365942636,0.429254334,0.090942592
0.024059464,0.012046475,-0.117823675,0.158799746,0.144189354,0.432176413,0.091267267
0.232176381,0.006526994,-0.111005493,-0.073018473,-0.221395121,0.433475114,0.091267267
0.351007569,-0.009057424,-0.10418731,-0.144122381,-0.274966558,0.422436151,0.090942592
0.200682869,-0.048992496,-0.020745738,-0.107758739,-0.271395129,0.434124465,0.090617916
0.01659193,0.02081271,0.0552283,-0.077239253,0.040942584,0.436721868,0.08964389
-0.134706795,0.037046479,0.0763322,0.078929603,0.325033538,0.43379979,0.087695838
-0.261330192,-0.02269379,0.027630893,0.229254302,0.16269585,0.435423167,0.088345189
-0.148667836,-0.098343153,-0.068473018,0.197436115,-0.166524982,0.436721868,0.087695838
-0.047369119,-0.08308341,-0.075615876,-0.088602892,-0.316525006,0.429254334,0.087371163
-0.04022626,0.002306214,-0.010356126,-0.17788862,0.155228316,0.435747842,0.086721812
-0.222369147,-0.151265239,0.103604931,-0.172369139,0.48152707,0.436397193,0.087371163
0.090617916,-0.157434071,0.160423122,-0.225615901,-0.456784769,0.413669916,0.086072461
-0.001589891,0.122760779,-0.020096387,-0.085031462,-0.315226305,0.435098491,0.087371163
-0.226265251,0.185423126,-0.126914586,-0.117174325,0.120812726,0.437046543,0.087371163
-0.162628877,0.064968562,-0.074966526,-0.301589939,0.101656879,0.400358226,0.088020513
0.08055298,-0.025940544,-0.094447048,-0.072044447,0.157501044,0.437046543,0.087371163
0.133799742,-0.02691457,0.069189342,0.199384168,0.08055298,0.43866992,0.087371163
0.117241297,0.023410113,-0.007758723,0.351332244,-0.276265259,0.401656927,0.082501032
0.062046483,-0.066849641,-0.127239261,0.163345201,-0.225940576,0.436721868,0.083150383
0.268215347,-0.065875615,-0.075615876,0.000358162,0.226332224,0.437371219,0.083475058
0.25328028,0.034773752,0.042241285,-0.11327822,0.479254342,0.438994596,0.081851681
0.131527014,-0.009706775,0.049059468,-0.217174341,0.234124433,0.439643946,0.08055298
0.083475058,0.019514009,0.105228308,-0.243148371,0.147111432,0.438994596,0.079903629
-0.039901585,0.093215319,-0.025615868,-0.125291209,-0.056460029,0.439319271,0.078604927
-0.064252238,0.075682849,-0.161654851,0.108150387,-0.16879771,0.4428907,0.078280252
0.238994564,0.067565965,-0.264901621,0.417566021,0.061721808,0.443864726,0.077630901
0.234449108,0.055877651,-0.318797734,0.517566037,0.029903621,0.42957901,0.077306226
-0.016200283,0.053929599,-0.177563945,0.149708835,-0.197044467,0.44711148,0.077955577
-0.14769381,0.090293241,0.031526998,-0.305161368,0.249708851,0.44711148,0.078604927
-0.072044447,0.034124401,0.206851701,-0.362953585,0.168864682,0.446462129,0.079578954
0.05457895,-0.285031495,0.165942604,-0.099641854,-0.303862666,0.450033558,0.08055298
0.113345193,-0.3324341,0.028604919,0.257825735,-0.211979535,0.450682909,0.08055298
0.199059492,0.216267287,-0.043473014,0.448410182,-0.156784721,0.436397193,0.079254278
0.114319219,0.307501068,0.015617904,0.208475078,-0.169771736,0.452630961,0.078604927
-0.311654875,0.171786761,0.061072457,-0.060356134,-0.192823688,0.451656935,0.079578954
-0.308083446,0.08542311,-0.047044443,-0.2467198,-0.113927571,0.420812775,0.0763322
-0.0739925,0.132176365,-0.112953545,0.004254266,-0.227239277,0.451007585,0.07211142
0.424384204,0.005877643,-0.06977172,0.425033554,-0.363602936,0.452955637,0.069514017
0.523410194,-0.07821328,0.055877651,0.052306222,-0.206784729,0.413669916,0.068864666
0.264643918,-0.683083506,0.100358178,-0.248018502,0.031851673,0.451981611,0.068215315
0.049384144,-0.401589955,0.177306242,0.085747786,-0.004511969,0.454579014,0.068539991
-0.024317167,0.480553044,0.130228312,0.152955589,-0.016849633,0.415617969,0.067565965
0.045163364,0.638020602,-0.111979519,0.008150371,0.043215311,0.452955637,0.067565965
1.030228457,0.336072501,0.052630897,-0.370096443,0.37405952,0.45133226,0.066916614
1.624384396,0.120488051,0.113345193,-0.45808347,0.384449132,0.457176417,0.067565965
-2.022369436,-0.274966558,-0.076265227,1.296786941,-0.127563937,0.454903689,0.06789064
-0.997044596,-0.209057456,-0.011330152,0.68802061,0.033799725,0.446137454,0.067565965
2.011722121,0.073410121,-0.121395105,-0.875291329,0.413994592,0.453280312,0.065942588
-1.165875792,-0.171719788,-0.308083446,0.472760835,0.045163364,0.453280312,0.064968562
-1.515226497,-0.162953553,-0.067174317,0.471137458,0.079254278,0.447436155,0.06366986
1.780553252,0.274708855,0.233475082,-1.202564109,0.602630986,0.435423167,0.064319211
-0.666525062,0.083475058,0.148734809,0.016916606,0.373734845,0.453604988,0.063994536
-2.060031779,-0.059382108,0.074059472,0.653280344,0.355877699,0.451656935,0.061072457
1.226332384,0.18866988,-0.04444704,-0.832109504,0.696786845,0.435747842,0.060747782
0.13672182,-0.006135346,-0.303537991,-0.118473026,0.080228304,0.451656935,0.060423106
-1.895421363,-0.197044467,-0.119771728,0.795812835,-0.3324341,0.447436155,0.059773756
0.587695918,0.081851681,0.29613743,-0.408408138,0.194189362,0.427955633,0.061721808
0.682176453,0.106851685,-0.037304182,-0.378213328,0.012695826,0.451981611,0.05944908
-2.510681202,-0.119122377,-0.150291213,0.591592023,-0.394447096,0.452630961,0.05944908
-1.539252475,-0.139901601,-0.024966518,-0.045421066,-0.305810719,0.410098487,0.057825703
0.13672182,-0.153537967,0.167565981,-0.446395157,0.009449072,0.453280312,0.057501028
0.547760847,-0.123667832,0.041267259,-0.421719828,0.136397145,0.453929663,0.058475054
0.49841019,-0.007434047,-0.187953557,-0.304512017,0.021786737,0.405228356,0.059124405
0.202955597,-0.01003145,-0.17366784,-0.134057444,-0.159382124,0.45555304,0.058799729
-0.204512001,-0.021070413,-0.045421066,0.018864658,-0.188927583,0.456202391,0.057176353
-0.274317207,-0.03113535,-0.323667864,0.026656867,-0.183408102,0.410098487,0.058799729
-0.187304206,-0.038278208,-0.157434071,-0.017498984,-0.355161376,0.453929663,0.058799729
-0.11327822,-0.041524962,0.317241329,-0.045745742,-0.662304282,0.454903689,0.058475054
0.893215448,-0.006135346,0.247111448,-0.06133016,-0.718473122,0.457501092,0.058475054
0.729579058,0.077630901,-0.091200295,-0.030485999,-0.011330152,0.455877715,0.05944908
-0.880486135,0.046786741,-0.178537971,0.119514025,0.417241345,0.453280312,0.058475054
-1.234057621,0.008475046,0.013020501,0.09808545,0.077630901,0.454903689,0.057176353
0.335747826,0.007176345,0.004903617,0.109449088,0.048410117,0.453929663,0.057501028
1.035747938,-0.037628857,0.041591935,-0.189901609,-0.034706779,0.453604988,0.058150379
-0.548343225,-0.079187306,0.133799742,-0.315226305,-0.340550984,0.4428907,0.055877651
-0.833732881,-0.063602888,0.037371155,-0.139901601,-0.450940612,0.454903689,0.052306222
-0.192823688,-0.029836648,0.027630893,-0.064576914,-0.421395153,0.45133226,0.051656871
0.239643914,-0.098992504,-0.012953529,0.034773752,-0.382109432,0.439643946,0.049708819
0.130877663,-0.066200291,0.053604923,0.087695838,-0.213602912,0.448410182,0.049384144
-0.166849657,-0.045421066,0.264643918,0.084449084,-0.071719772,0.448734857,0.049384144
-0.49184971,0.046462065,0.292890676,-0.038927559,0.0763322,0.432501088,0.049384144
-0.489252306,0.115293245,0.215617936,-0.158083422,0.651332292,0.449059532,0.049059468
0.037046479,0.092565969,0.302306262,-0.09574575,0.611721896,0.44711148,0.053929599
0.192241309,-0.058083406,-0.003537943,0.132176365,0.025358166,0.416591995,0.054903625
0.040293233,-0.123992508,-0.254836684,0.251332228,0.195488063,0.448410182,0.05100752
0.03347505,-0.064576914,-0.144771732,0.142241301,0.268864698,0.447436155,0.05035817
-0.036654831,-0.01360288,0.091591943,-0.090875619,-0.033732753,0.410098487,0.05035817
1.803280529,0.00750102,0.273085478,-0.340875659,-0.198667844,0.450682909,0.049384144
2.914644343,-0.010680801,0.156202343,-0.059057432,0.230877679,0.450033558,0.043539987
-0.453538015,-0.003862618,0.051981547,0.362695882,0.480553044,0.419838748,0.048410117
-2.287304543,-0.122044455,0.046786741,0.192565985,0.486721876,0.447760831,0.047760767
-1.478538179,-0.169122385,0.088020513,-0.396395149,0.486397201,0.446462129,0.052306222
-0.283732793,-0.113602896,0.224059496,-0.137628873,0.324059512,0.447436155,0.05457895
0.800033615,-0.01425223,-0.033408078,0.299708859,-0.418473074,0.446786805,0.054903625
1.728929868,0.062695834,0.075682849,0.359124453,0.151981563,0.446137454,0.054903625
2.047761088,0.013669852,0.043215311,0.428280308,0.842566089,0.448734857,0.054903625
0.222760795,-0.085680813,-0.262953569,0.253604956,0.399708875,0.445812779,0.054254274
-2.464901974,-0.091849645,-0.23827824,0.088669864,-0.133408094,0.444838752,0.05457895
-2.076265548,-0.07042107,-0.229512005,-0.058083406,-0.579836737,0.43022836,0.053929599
-0.483732825,-0.073667824,-0.17301849,-0.238602916,-0.903213412,0.447760831,0.053604923
0.210747806,-0.093148347,-0.036979507,-0.252239281,-0.765226377,0.446462129,0.052306222
0.215942612,-0.046719768,-0.039901585,-0.085356138,-0.457109444,0.435747842,0.0552283
-0.086979515,0.042565961,-0.003862618,0.009124397,-0.013927555,0.444838752,0.055552976
-0.441200351,-0.006784697,-0.044771716,0.24483872,0.015293229,0.444514077,0.057176353
-0.691525066,0.114319219,-0.04379769,0.22730625,-0.314252278,0.430877711,0.056202326
-0.666849738,-0.024641842,-0.159382124,0.076007524,-0.81555106,0.445163428,0.056851677
-0.161005501,-0.329187346,-0.183083426,0.220812742,-1.496720001,0.4428907,0.056527002
0.30522834,-0.469771784,-0.085356138,0.035423102,-1.592174561,0.40847511,0.056851677
0.293215351,-0.2467198,-0.106135362,-0.034382104,-0.461979575,0.440617973,0.056851677
0.291591975,0.096786749,-0.113602896,-0.023018465,0.645488135,0.438994596,0.056851677
0.522436167,0.314643926,-0.054187302,0.056202326,0.685098531,0.401007577,0.054254274
0.831851802,0.051656871,-0.135356146,0.035747778,-0.782109496,0.436721868,0.055877651
0.876657004,-0.244771748,-0.209057456,0.203929623,-1.34931738,0.436397193,0.054903625
0.595488127,-0.270096427,-0.070096395,0.251332228,-0.698343249,0.406527058,0.058150379
0.186397153,-0.195421091,0.216591963,-0.0093821,-0.304836692,0.434773816,0.058475054
-0.143797706,-0.165875631,0.211397157,-0.206460053,-0.343797738,0.43379979,0.058799729
-0.244122397,-0.062628861,-0.02691457,-0.236330188,0.238345213,0.435747842,0.058475054
-0.187953557,-0.007434047,-0.128862638,-0.108083414,0.681202427,0.432825764,0.059124405
-0.461005549,-0.232758759,-0.226914602,0.08477376,0.394189394,0.431851737,0.058475054
-0.315875655,-0.375615925,-0.116849649,0.252306254,0.127630909,0.435098491,0.060098431
0.582176437,-0.001914566,0.17957897,0.214968586,-0.338602932,0.430877711,0.05944908
0.720812823,0.169514033,0.015293229,-0.162628877,-0.12594056,0.428280308,0.060747782
-0.222693822,0.301656911,-0.094447048,-0.373667872,0.842566089,0.412371215,0.060098431
-0.375615925,0.37341017,0.059124405,-0.439252298,0.564319291,0.428929659,0.058150379
-0.174966542,0.451656935,-0.069122369,-0.153862642,0.136397145,0.428280308,0.056851677
-0.554187382,0.443540051,-0.124966534,0.034449076,0.332176397,0.419189398,0.057825703
-0.49249906,0.312371199,0.260423138,-0.09152497,0.516267335,0.423410178,0.060423106
-0.501265295,0.17600754,0.183150399,-0.137953549,0.299708859,0.423734853,0.062371159
-0.866200419,0.203929623,-0.158732773,-0.282109416,0.272760803,0.409449136,0.063994536
-1.394447257,0.206851701,-0.21230421,-0.227563953,0.657501124,0.423410178,0.064319211
-0.959382252,0.236397161,-0.171395113,0.081851681,0.31789068,0.422436151,0.065942588
-0.054187302,0.193540011,-0.07821328,0.163669876,0.540617989,0.381527054,0.064968562
0.394514069,0.139968574,0.225682873,-0.00094054,0.495488111,0.420163424,0.065942588
0.554903705,0.263020541,0.469514081,-0.124641858,0.366591987,0.421462125,0.066591939
1.125683018,0.401981603,0.253604956,-0.103213284,0.283799766,0.37405952,0.066916614
1.857501317,0.333799774,-0.157434071,0.229578978,0.28347509,0.421786801,0.06789064
1.67957921,0.165617928,-0.073667824,0.171786761,0.225358198,0.421786801,0.068539991
1.478605152,0.068215315,0.126332208,-0.030810675,-0.381460081,0.396137446,0.066267263
1.949384448,-0.071395097,-0.080161332,-0.023667816,-0.395745798,0.419189398,0.066916614
2.949059933,-0.291525002,-0.192499012,-0.046070417,0.59743618,0.418864722,0.066267263
2.698085867,-0.226589927,0.090617916,0.140293249,0.737371267,0.419514073,0.067565965
-0.218148367,-0.016849633,0.049059468,0.215942612,0.153604939,0.417566021,0.070163368
-2.176265564,-0.004187294,-0.329187346,-0.073343149,0.349059516,0.418215372,0.072436095
-0.988603036,0.067241289,-0.092823671,-0.152239265,-0.619122457,0.42113745,0.07211142
1.600033743,0.276656907,0.17113741,-0.142823679,-0.835356258,0.418864722,0.073734797
2.67893002,0.1844491,0.189643906,-0.185031478,-0.383083458,0.417890696,0.073085446
2.222761116,0.159124421,0.242565993,-0.021395089,0.124384156,0.401981603,0.069838692
2.404904002,0.11561792,0.259773788,0.109124413,0.235423134,0.418215372,0.071137394
1.541592175,-0.029187298,-0.029187298,0.018539983,0.148410133,0.417241345,0.071786745
-0.551265303,-0.100615881,-0.174317191,-0.092174321,0.025358166,0.415942644,0.071462069
-1.897369415,0.105228308,-0.070745746,-0.106784713,-0.288927599,0.414643942,0.071462069
-1.36684985,0.212371183,-0.060356134,-0.056784705,-0.345421115,0.417241345,0.071462069
-0.765226377,0.02503349,-0.024641842,0.11496857,-0.033083402,0.402630953,0.069838692
-0.325615917,-0.047693794,0.03769583,0.191591959,-0.04022626,0.414968618,0.068215315
0.077955577,-0.016200283,0.114643894,-0.004836644,-0.977888749,0.411721864,0.06789064
-0.861005613,-0.002239241,0.135747794,-0.13016134,-1.017174469,0.383150431,0.066591939
-1.045096552,0.048410117,0.196786765,-0.001589891,0.581851761,0.41269589,0.06789064
-0.447693858,0.038020505,0.12405948,0.138020521,0.876657004,0.411072513,0.069189342
-1.119771888,-0.012953529,-0.089252242,0.240942616,0.229254302,0.377306274,0.070488043
-0.756460142,-0.0739925,-0.094771724,0.062046483,-0.408408138,0.411072513,0.073734797
-0.447044508,-0.228213304,-0.017498984,-0.002563917,-0.936979651,0.409773812,0.077306226
-0.273018506,-0.335031503,-0.02269379,-0.030810675,0.656202423,0.402306278,0.0763322
0.031526998,-0.321395137,0.131527014,-0.04022626,1.191916794,0.40847511,0.077306226
0.06366986,-0.301589939,0.045163364,0.143540003,0.505553048,0.409124461,0.076981551
-0.157109396,-0.243148371,-0.219122393,0.174384164,0.024059464,0.406851733,0.076981551
-0.580161412,-0.074966526,-0.138278224,0.004903617,-0.094122373,0.408799786,0.076981551
-0.757109492,-0.021070413,0.015293229,-0.066200291,0.066916614,0.407825759,0.075682849
-0.787304302,-0.052563925,0.061397132,-0.034057428,0.211072481,0.40847511,0.075682849
-0.8282134,-0.047044443,-0.116524974,-0.033083402,0.369514065,0.407176409,0.076007524
-0.390875667,0.011397124,-0.328537995,-0.077239253,0.42957901,0.406527058,0.077306226
-0.346395141,0.135747794,-0.183732777,-0.218797718,0.240293265,0.389968614,0.077630901
-0.485356202,0.097760775,0.039968558,-0.276265259,0.174059488,0.406527058,0.077955577
-0.667823764,0.165293253,0.081851681,-0.065875615,0.398410174,0.407501084,0.078280252
-0.356135402,0.181527022,0.055877651,0.061397132,0.282176389,0.404903681,0.078929603
0.083799733,0.047111416,0.091591943,0.086397137,0.197760791,0.405228356,0.082176357
-0.323667864,-0.107434063,0.142241301,0.105552984,0.287046519,0.403929655,0.083150383
-0.317823708,-0.102239257,-0.119771728,0.051656871,0.176981567,0.399059524,0.083150383
0.028280244,0.052306222,-0.477563993,-0.04379769,-0.242823696,0.404903681,0.083475058
0.070488043,0.21042313,-0.48762893,-0.097044451,-0.141849653,0.402955629,0.084449084
-0.129511989,0.245812746,-0.140226276,-0.056784705,0.044514013,0.380877703,0.08477376
-0.346070465,0.214968586,0.096137398,-0.088927567,-0.272369155,0.40425433,0.08542311
-0.627564017,0.220812742,0.065942588,-0.084706787,-0.336979555,0.402955629,0.088345189
-0.465875679,0.045812714,0.067241289,0.070488043,-0.201265247,0.374708871,0.089968566
-0.347693842,-0.032758727,0.076981551,0.101981555,-0.014901581,0.404903681,0.092241293
-0.335356178,0.02438414,0.042565961,0.00750102,0.006202318,0.404903681,0.091916618
-0.325291241,0.051332196,0.03769583,-0.025615868,0.105228308,0.403280304,0.090617916
-0.173992516,-0.025940544,-0.016849633,-0.025940544,0.012371151,0.405553032,0.09386467
-0.1386029,-0.04379769,-0.179511997,0.001332188,-0.081135358,0.404903681,0.093539995
-0.390226317,-0.063927563,-0.171070437,0.060747782,0.02925427,0.40425433,0.095163372
-0.555486083,-0.110031466,-0.225615901,0.25750106,-0.034706779,0.404579006,0.096462073
-0.280810715,-0.042823663,-0.400291253,0.222111444,-0.049641846,0.40425433,0.095812722
-0.310031499,-0.039252234,-0.302563965,0.360423154,-0.213602912,0.409124461,0.096137398
-0.221719796,0.008475046,0.027306218,0.3136699,-0.194122389,0.40360498,0.095812722
-0.121070429,-0.052239249,0.190942608,-0.219122393,-0.133732769,0.402306278,0.096137398
-0.093473022,-0.26360292,0.12405948,-0.161654851,0.004578942,0.376981599,0.095163372
0.123085454,-0.49671984,3.35E-05,-0.325291241,0.129254286,0.404579006,0.096137398
0.295163404,-0.526265299,-0.136330172,-0.561654916,0.031202322,0.405877707,0.095488047
0.222436119,-0.371070469,-0.142823679,0.148734809,-0.13925225,0.402630953,0.095812722
0.21042313,-0.3324341,-0.022044439,1.009449233,-0.175940568,0.403929655,0.095488047
-0.075615876,-0.132758743,0.101332204,0.534773832,-0.003537943,0.399708875,0.095488047
-0.334382152,0.14516338,-0.150291213,-0.416849697,0.101981555,0.402630953,0.095488047
-0.356784753,0.097760775,-0.355810727,-0.655810775,-0.10483666,0.402955629,0.093215319
0.28347509,-0.297369159,-0.166524982,-0.339901633,-0.280486039,0.402306278,0.092890644
0.989644035,-0.59152505,0.05944908,-0.084382112,0.009124397,0.379903677,0.092241293
0.939319351,-0.575615957,0.299708859,0.107176361,0.532501104,0.40425433,0.092241293
0.274708855,-0.440551,0.33964393,0.236397161,0.589319295,0.402306278,0.092565969
-0.378862678,-0.273667856,0.234124433,0.363994584,0.326981591,0.36983874,0.092565969
-0.218473042,-0.098667828,0.095163372,0.255877683,0.17600754,0.405228356,0.093215319
0.044189338,-0.068797694,-0.073343149,0.02925427,0.206202351,0.405877707,0.093539995
0.211397157,-0.03957691,-0.167174333,-0.452239314,0.199059492,0.411721864,0.093215319
0.270488075,0.169189358,-0.077239253,-0.450291261,-0.017174309,0.408150435,0.092890644
-0.002888592,0.225682873,0.175033514,-0.171070437,-0.240875643,0.40847511,0.092890644
-0.110680817,0.147436107,0.30035821,-0.131460041,-0.167174333,0.409449136,0.092565969
0.178280268,0.066591939,0.196462089,0.259449112,-0.123018482,0.410423163,0.092241293
0.263669892,-0.048018469,0.0763322,0.626981639,-0.036005481,0.411072513,0.089968566
0.053929599,-0.187304206,-0.026589895,0.315942628,0.048410117,0.413994592,0.087371163
-0.29444708,-0.107434063,-0.100940556,0.316916654,0.080228304,0.411721864,0.086721812
-0.420096451,0.070163368,-0.125291209,0.274708855,-0.07886263,0.413669916,0.087695838
-0.207434079,0.126981559,0.02925427,-0.029511973,-0.389576966,0.402306278,0.086721812
-0.194122389,0.130552988,0.199384168,-0.414252294,-0.43210944,0.412371215,0.086072461
-0.257758763,0.170812734,0.072436095,-0.829512101,-0.366200339,0.413994592,0.086397137
0.063020509,0.047760767,0.036721804,-0.8928238,-0.329187346,0.413345241,0.085747786
0.231202355,-0.055161328,0.190942608,-0.190875635,-0.207434079,0.412046539,0.086397137
0.139643898,-0.546719848,0.201007544,0.543864742,-0.063602888,0.413669916,0.08542311
0.045812714,-0.593473102,0.030552972,0.318540031,-0.311654875,0.413345241,0.086072461
0.17957897,0.234124433,0.012371151,-0.105161336,-0.507758803,0.422760827,0.086072461
0.132825715,1.055228461,0.149059484,-0.2032133,-0.427563985,0.427955633,0.086072461
0.210747806,0.764643999,0.219514041,-0.341849685,0.029578946,0.415942644,0.082176357
0.477955641,-0.023667816,0.152306238,-0.236654863,-0.032109376,0.435423167,0.077306226
0.767241402,-0.434706843,0.060098431,0.146462081,-0.488927631,0.45977382,0.073410121
0.619838781,-0.257758763,-0.007758723,0.122436103,-0.094447048,0.479254342,0.07211142
0.320163408,0.055877651,-0.044122365,-0.13503147,0.303604964,0.554903705,0.068539991
0.456851741,0.126007532,-0.022369115,-0.193797714,0.213345209,0.609124493,0.064968562
0.444514077,0.113669868,-0.113927571,-0.010356126,-0.061979511,0.660423203,0.063994536
0.263345217,0.11074779,-0.118797702,0.427955633,-0.330161372,0.7013323,0.061397132
0.288994572,0.151656887,-0.028862622,0.49905954,-0.355161376,0.740942696,0.050682845
0.264643918,0.202630921,0.138020521,0.073085446,-0.079187306,0.780553092,0.047760767
0.505877723,0.185423126,0.138020521,-0.441849701,0.057176353,0.818540111,0.041267259
0.678605024,0.3782803,-0.012953529,-0.30288864,0.141267275,0.850682973,0.034449076
0.5075011,0.419514073,-0.179187322,0.026981543,0.186072477,0.882825836,0.032825699
0.29613743,0.213669884,-0.249317203,0.483799798,0.095812722,0.914319347,0.031202322
0.061072457,-0.041200287,-0.181784725,0.609773844,0.000682837,0.946786885,0.028280244
0.087046487,-0.2032133,-0.089252242,0.36496861,0.090293241,0.96821546,0.028929595
-0.045745742,-0.180486023,0.026332192,0.059773756,0.03769583,1.007176505,0.028604919
-0.028213271,-0.091200295,-0.01425223,-0.115875623,-0.035680805,1.052955733,0.027955569
-0.183408102,-0.015226256,-0.185680829,0.076656875,0.117241297,1.086721972,0.027306218
0.010423098,-0.036330156,-0.29379773,-0.201914598,0.216267287,1.121462238,0.026656867
0.302630937,-0.023343141,-0.205810703,-0.708732861,0.113345193,1.158475231,0.025358166
0.42535823,-0.167174333,-0.082109384,-0.579187386,0.008150371,1.188994716,0.02503349
0.125033506,-0.166524982,0.012046475,0.073734797,-0.023018465,1.228929787,0.022111412
-0.377888652,0.093215319,0.101007528,0.452306286,0.099059476,1.258475247,0.02016336
-0.34152501,0.11918935,-0.015875607,0.474708887,0.222760795,1.268540183,0.019838684
-0.595421155,-0.067174317,0.003604915,0.320812759,0.259449112,1.298734993,0.018539983
-0.942499132,-0.017823659,0.123734805,0.181851697,0.203929623,1.31724149,0.018215307
-0.629512069,-0.152563941,0.117241297,-0.051265223,-0.000615864,1.313670061,0.018539983
-0.342174361,-0.136005497,-0.176265243,-0.2678237,-0.140226276,1.351007729,0.017890632
-0.364901637,0.074384148,-0.376914626,-0.162953553,-0.130486015,1.371786953,0.018215307
-0.484382176,0.055552976,-0.22983668,0.032501024,-0.24249902,1.388670073,0.018539983
-0.57821336,0.302955613,0.016916606,0.08899454,-0.272044479,1.406202543,0.018539983
-0.73762897,0.29191665,0.148085458,0.097760775,-0.076589903,1.424384364,0.018215307
-0.671719868,0.113345193,0.353280296,-0.102888608,0.029578946,1.438670081,0.018215307
-0.646395189,0.0763322,0.020488035,-0.050940548,0.1409426,1.464319435,0.018539983
-0.527888676,0.138345197,-0.281784741,0.177630917,0.077630901,1.48152723,0.018539983
-0.36327826,0.22730625,-0.148992512,0.182176373,0.028604919,1.495163596,0.018539983
-0.227563953,0.208799754,0.02081271,0.05457895,-0.031784701,1.513994768,0.018215307
-0.079187306,0.213345209,0.061072457,0.025358166,0.017241281,1.527631134,0.018539983
-0.038602884,0.327630941,0.038994531,-0.053537951,0.019838684,1.520812951,0.018864658
0.048410117,0.456202391,0.033150375,-0.152888616,-0.020421062,1.553605164,0.018864658
0.290942624,-0.015875607,-0.002888592,-0.065226264,-0.027888596,1.573085687,0.018539983
0.476007589,-0.360031507,-0.04022626,-0.021070413,-0.000291189,1.581851922,0.018539983
0.612695922,-0.364901637,-0.150940564,0.001981539,-0.032434051,1.592890885,0.018864658
0.661397229,-0.305810719,-0.119771728,-0.084706787,-0.117499,1.606851926,0.018864658
0.740293345,-0.309382148,-0.021719764,-0.181135374,0.084124409,1.611722057,0.018539983
0.763669972,-0.206784729,0.037046479,-0.14347303,0.225358198,1.630553228,0.018215307
0.689643987,-0.075291201,0.021786737,-0.078537955,0.073085446,1.641592191,0.018864658
0.579579034,0.113994544,-0.050940548,-0.110680817,-0.024966518,1.636397385,0.019189334
0.511397205,0.099059476,-0.090226268,-0.004836644,-0.085680813,1.667890897,0.019514009
0.505228373,-0.221070445,-0.07042107,0.11074779,-0.034706779,1.683150639,0.019189334
0.457825768,-0.261330192,-0.009706775,0.042241285,0.054903625,1.671787001,0.018539983
0.140617924,-0.064901589,0.039968558,0.004254266,0.054903625,1.708799994,0.018539983
0.019189334,-0.098667828,-0.015226256,0.087046487,0.031202322,1.722111685,0.018539983
-0.04444704,-0.35418735,-0.003862618,0.012046475,-0.043473014,1.736397401,0.018864658
-0.08730419,-0.510680881,0.045488039,0.027306218,-0.16522628,1.745488312,0.018864658
-0.05710938,-0.36327826,0.004578942,-0.167499008,-0.147369135,1.759124678,0.018215307
-0.327563969,0.010098423,0.066916614,-0.265550972,-0.12594056,1.769189614,0.018539983
-0.394122421,0.161721824,0.064319211,-0.031460025,-0.06977172,1.7786052,0.018539983
-0.406460085,0.171786761,-0.076265227,0.193864686,0.039968558,1.789644163,0.018539983
-0.430161388,0.130552988,-0.075940552,0.367566013,-0.002888592,1.799059749,0.018864658
-0.592499076,0.031851673,-0.003213267,0.004903617,-0.030485999,1.807825984,0.018864658
-0.590875699,-0.198667844,0.032501024,-0.341849685,0.091591943,1.824059753,0.018539983
-0.437953597,-0.340875659,0.03769583,-0.183083426,0.104254282,1.820488324,0.018215307
-0.352888648,-0.336979555,-0.058083406,0.073085446,0.032501024,1.841267548,0.018864658
-0.363602936,-0.471070485,-0.190875635,0.137695846,-0.064901589,1.849709108,0.018215307
-0.292174353,-0.118797702,-0.201589923,0.047111416,-0.060356134,1.854903914,0.019189334
-0.288927599,0.042241285,-0.047044443,-0.193797714,0.030877647,1.86074807,0.019514009
-0.1386029,-0.264576946,-0.029511973,-0.447044508,0.208799754,1.86496885,0.022436087
0.02438414,-0.368797742,0.000358162,-0.076265227,0.190617932,1.871462358,0.02438414
0.224708847,-0.380810731,0.111072465,0.374708871,0.169838708,1.878605216,0.025682841
0.279903661,-0.396719824,0.046786741,0.014968554,0.105877659,1.883800022,0.030228296
-0.201589923,-0.0528886,-0.045421066,-0.162304202,-0.016200283,1.875683138,0.031851673
-0.323667864,0.157501044,-0.003862618,0.069838692,-0.045421066,1.897436388,0.032176349
-0.273992532,-0.267174349,-0.033732753,0.127955585,-0.070745746,1.90360522,0.031526998
-0.204512001,-0.486979579,-0.000615864,0.028280244,-0.029187298,1.883800022,0.030552972
0.345488087,-0.325940592,-0.027563921,-0.231784733,0.152630913,1.910423403,0.029903621
0.484449148,-0.333408126,-0.191849661,-0.349317219,0.221462093,1.917890937,0.026981543
0.211072481,-0.239901617,-0.132758743,-0.031460025,0.221462093,1.929254575,0.031851673
0.174708839,0.177955593,-0.083408086,0.422436151,0.111072465,1.929254575,0.037046479
0.268864698,0.336397177,-0.045745742,0.289643922,-0.111330168,1.93380003,0.039968558
0.243215343,0.488669928,0.071462069,0.065942588,-0.20808343,1.93802081,0.041267259
-0.01847301,0.509124477,0.186721828,0.010747774,-0.058408082,1.942890941,0.043215311
-0.326914618,0.742566073,0.164968578,-0.067823667,-0.024641842,1.945488344,0.045488039
-0.169771736,0.834124529,0.112695842,-0.264901621,-0.120745754,1.951007825,0.056202326
-0.088602892,0.436721868,0.164643902,-0.192499012,-0.117823675,1.957501333,0.071462069
-0.124966534,0.081851681,0.160747798,-0.111330168,0.058150379,1.968540296,0.08477376
0.224059496,0.061397132,0.068539991,0.136072469,0.116267271,1.968540296,0.095163372
0.129903637,0.331851721,-0.022369115,0.225033522,-0.059057432,1.987696143,0.101656879
0.02016336,0.273734829,0.031526998,0.135423118,-0.178862646,1.99841043,0.109449088
0.009449072,0.232501056,0.157501044,-0.011979503,-0.247693826,2.000358483,0.112371167
-0.028213271,0.387371211,0.133150391,-0.003537943,-0.086005489,2.007176665,0.113994544
0.086721812,0.5075011,0.138020521,-0.00516132,0.041267259,2.015618225,0.122436103
0.232176381,0.663669956,0.114643894,-0.022044439,-0.15191459,2.014644199,0.130552988
0.158799746,0.815293357,0.099708827,-0.054511977,-0.282434091,2.019839005,0.136072469
-0.136654847,0.548734873,0.044514013,-0.067498992,-0.180161348,2.025358487,0.141591951
-0.062628861,-0.033083402,0.02016336,0.066267263,-0.04444704,2.017890953,0.146786757
-0.026589895,-0.451265287,0.080877655,0.047436091,-0.086979515,2.030553293,0.152630913
-0.187628881,-0.461654899,0.061721808,-0.031784701,-0.221719796,2.036397449,0.159773772
-0.061979511,-0.271395129,0.048085442,-0.097369127,-0.226914602,2.017566277,0.166267279
0.187046503,-0.173343165,0.006202318,-0.045745742,-0.177239269,2.036397449,0.17600754
0.18022832,-0.209057456,-0.020096387,0.095163372,-0.056460029,2.039968878,0.183150399
0.047111416,-0.098992504,-0.007434047,0.084124409,0.0763322,2.043864983,0.183150399
0.133150391,0.126656883,0.021137386,-0.057434055,0.035423102,2.042890957,0.188994556
-0.020421062,0.315293277,-0.035031454,-0.150615889,0.010098423,2.045813035,0.198734817
-0.073018473,0.387695886,-0.061654835,-0.167174333,0.047111416,2.045163684,0.215293261
-0.064576914,0.314319251,-0.033083402,-0.556784785,0.111721816,2.049384464,0.225682873
0.09386467,0.289968598,-0.071395097,0.044514013,0.159449096,2.052955894,0.232176381
0.086397137,0.391916666,0.037046479,0.351332244,0.110423114,2.056851998,0.237371187
0.116916622,0.284773792,0.176981567,0.032176349,0.149059484,2.055877972,0.248085474
-0.093148347,0.072436095,0.048085442,-0.139901601,0.163994552,2.060748103,0.256851709
-0.121070429,0.112371167,-0.150615889,-0.158083422,0.193540011,2.06302083,0.263020541
-0.135680821,0.301332236,-0.13438212,-0.116849649,0.24483872,2.064644207,0.270812751
-0.113927571,0.288020545,-0.030810675,-0.031460025,0.203604948,2.062371479,0.27925431
0.007825695,0.433150439,0.083150383,0.014968554,0.147436107,2.055877972,0.289968598
0.132176365,0.388994588,0.078929603,0.071137394,0.084449084,2.066592259,0.309773796
0.077955577,0.111397141,0.001656863,0.104254282,0.056851677,2.069839013,0.32211146
-0.149966538,-0.042823663,-0.067498992,0.028929595,0.013994527,2.061072778,0.33055302
-0.280486039,0.002955565,-0.073018473,0.02016336,-0.003862618,2.073410442,0.342241333
-0.173343165,-0.047369119,-0.13016134,0.088020513,0.066916614,2.079254599,0.353604972
0.092565969,-0.070096395,-0.063278212,0.157176369,0.036397128,2.062696155,0.364319259
0.227630925,-0.020421062,-0.028862622,0.111721816,-0.050291197,2.083800054,0.381851729
0.056527002,-0.053862626,-0.083732761,-0.019122361,-0.075291201,2.091267588,0.382176405
-0.042823663,-0.306135394,-0.156784721,-0.038602884,-0.107109388,2.074059793,0.407176409
-0.037953533,-0.363602936,-0.184382128,0.085747786,-0.076265227,2.103605252,0.423085502
-0.10418731,-0.283408118,-0.137628873,0.181202347,-0.131460041,2.109774084,0.431851737
-0.062953537,-0.333732801,-0.063927563,0.156851693,-0.196070441,2.110423435,0.440617973
0.036397128,-0.185680829,0.093539995,0.035423102,-0.128537963,2.111722137,0.445812779
-0.047044443,0.00750102,0.118864674,-0.104511985,-0.140875627,2.11431954,0.45133226
-0.242174345,0.157825719,0.005228292,-0.032434051,-0.270745778,2.113020838,0.458150443
-0.389576966,-0.028537947,-0.067498992,0.053280248,-0.223667848,2.118215644,0.469514081
-0.248343177,-0.297369159,-0.031460025,0.045488039,-0.081460033,2.125033827,0.474708887
-0.043473014,-0.498992568,-0.024966518,0.070488043,-0.060680809,2.129579282,0.481851745
0.11918935,-0.512953609,-0.016849633,0.118215323,-0.115550948,2.136722141,0.486397201
0.129903637,-0.421070477,-0.058083406,0.126656883,-0.112953545,2.14451435,0.493215384
0.013020501,-0.326914618,-0.099317179,0.094514021,-0.124317183,2.144189674,0.49905954
-0.041200287,-0.22074577,-0.106784713,0.187371179,-0.088602892,2.147111753,0.506527074
0.103280256,-0.105161336,-0.140875627,0.106202334,0.088020513,2.148085779,0.51594266
0.267890672,0.059124405,-0.122044455,0.006526994,0.02438414,2.152306559,0.526007597
-0.071719772,0.055877651,0.008475046,0.069838692,-0.063278212,2.157501365,0.531527078
-0.480810747,-0.140226276,0.116591947,0.03769583,-0.107758739,2.159449417,0.539319287
0.051332196,-0.261654867,0.105228308,0.038669856,-0.086654839,2.152631234,0.545488119
0.486721876,-0.284382144,-0.024317167,-0.002239241,-0.020096387,2.169514354,0.556527082
0.461397197,-0.244122397,-0.101914582,0.034773752,0.030228296,2.17470916,0.566267343
0.290617948,-0.15191459,-0.197369143,0.171462085,0.001981539,2.164968899,0.574708903
0.063994536,-0.15613537,-0.22074577,0.143540003,0.010747774,2.189644227,0.586397217
-0.016849633,-0.134706795,-0.178537971,0.051656871,0.050682845,2.189319552,0.581527086
-0.156784721,0.000682837,-0.067174317,0.0552283,0.109449088,2.173735134,0.605877739
-0.203537975,0.027630893,-0.011330152,-0.027563921,0.188345205,2.192566306,0.615618001
-0.152888616,-0.056135354,0.048734793,-0.049641846,0.150358186,2.196137735,0.625033587
0.420488099,-0.061005485,0.08899454,-0.075291201,0.095163372,2.197761112,0.638020602
0.623734885,-0.029511973,0.12828026,-0.07821328,0.093215319,2.197761112,0.647760863
0.096786749,0.042565961,0.068539991,-0.03535613,0.098734801,2.200358515,0.652630994
-0.183732777,0.089968566,0.094838696,0.015293229,0.182825723,2.202306567,0.656851773
-0.196070441,0.068539991,0.080228304,-0.058732757,0.067565965,2.203605268,0.660747878
-0.272369155,0.122436103,0.040293233,-0.121070429,-0.050291197,2.207826048,0.669514113
-0.211005509,0.129254286,0.060098431,-0.13925225,-0.00581067,2.210098776,0.678605024
0.083150383,0.038020505,0.037046479,-0.158732773,0.109773764,2.210748127,0.68379983
0.196786765,-0.008408074,-0.056460029,-0.141200303,0.14516338,2.213670205,0.693864766
0.102630905,0.039968558,-0.119447052,-0.037628857,0.123085454,2.205228645,0.703605028
-0.111005493,0.021137386,-0.122369131,-0.010680801,0.033150375,2.208150724,0.707501132
0.034773752,-0.036979507,0.007825695,-0.054187302,-0.023343141,2.207501373,0.717566069
0.239319239,-0.036654831,0.095163372,-0.063602888,0.0117218,2.200033839,0.7224362
0.095488047,0.274708855,0.127630909,-0.084057436,0.112695842,2.210423451,0.726981655
-0.157758747,0.4639946,0.065617912,-0.115550948,0.112695842,2.208150724,0.734124513
-0.10840809,0.151656887,-0.027888596,-0.049966522,0.117241297,2.198410462,0.742241398
0.19289066,-0.132109392,-0.054836652,-0.047693794,0.092241293,2.212046828,0.749708931
0.286721844,-0.156460045,-0.071070421,-0.045745742,-0.007434047,2.214968907,0.757176465
0.400358226,-0.073018473,-0.086979515,-0.111005493,-0.106460037,2.206202671,0.762695946
0.351981595,-0.035680805,-0.095421074,-0.100291205,-0.176914594,2.221462414,0.768215428
0.160747798,-0.041200287,-0.053537951,-0.075615876,0.109449088,2.224709168,0.742890748
-0.069122369,-0.00094054,-0.041849637,-0.094447048,0.311721848,2.196787085,0.777955689
